   LOG10(FN) FN  Arguments: Lamda11, Lamda22 ... [deg]
 -0.30103000         0.50000000          92.018729          90.105299          90.104923          91.904437          97.584604          97.765948          158.98236    
 -0.23801970         0.57806983          92.321138          90.121671          90.121237          92.193541          98.747328          98.955548          160.40935    
 -0.17500940         0.66832946          92.668675          90.140581          90.140080          92.526555          100.08103          100.31957          161.53417    
 -0.11199910         0.77268219          93.068027          90.162420          90.161840          92.910198          101.60721          101.87967          162.36576    
 -0.48988796E-01     0.89332853          93.526859          90.187640          90.186969          93.352245          103.34820          103.65820          162.91151    
  0.14021504E-01      1.0328125          94.053948          90.216759          90.215984          93.861720          105.32627          105.67721          163.17614    
  0.77031804E-01      1.1940755          94.659339          90.250379          90.249483          94.449119          107.56209          107.95681          163.16083    
  0.14004210          1.3805181          95.354516          90.289190          90.288155          95.126696          110.07268          110.51298          162.86253    
  0.20305240          1.5960717          96.152588          90.333987          90.332791          95.908809          112.86856          113.35463          162.27340    
  0.26606270          1.8452818          97.068499          90.385686          90.384305          96.812370          115.95047          116.48016          161.38022    
  0.32907300          2.1334035          98.119232          90.445342          90.443748          97.857389          119.30574          119.87393          160.16377    
  0.39208330          2.4665124          99.324024          90.514168          90.512328          99.067636          122.90524          123.50336          158.59817    
  0.45509360          2.8516328          100.70454          90.593559          90.591437          100.47135          126.70182          127.31770          156.65023    
  0.51810390          3.2968858          102.28496          90.685118          90.682673          102.10175          130.63109          131.24938          154.27908    
  0.58111420          3.8116604          104.09194          90.790684          90.787872          103.99648          134.61540          135.21852          151.43702    
  0.64412450          4.4068118          106.15416          90.912371          90.909141          106.19355          138.57041          139.13995          148.07429    
  0.70713480          5.0948899          108.50129          91.052600          91.048899          108.71718          142.41332          142.93147          144.15448    
  0.77014510          5.8904043          111.16183          91.214143          91.209916          111.53903          146.07057          146.52139          139.69566    
  0.83315540          6.8101300          114.15910          91.400173          91.395365          114.50122          149.48353          149.85366          134.85161    
  0.89616570          7.8734614          117.50453          91.614309          91.608871          117.25164          152.61118          152.89011          129.98324    
  0.95917600          9.1028210          121.18778          91.860680          91.854575          119.35810          155.42989          155.60978          125.55441    
   1.0221863          10.524132          125.16512          92.143978          92.137194          120.58003          157.93120          158.00649          121.87168    
   1.0851966          12.167367          129.35098          92.469529          92.462093          120.96420          160.11848          160.08559          118.99669    
   1.1482069          14.067175          133.62078          92.843358          92.835358          120.72974          162.00353          161.86072          116.85765    
   1.2112172          16.263619          137.83002          93.272261          93.263875          120.14483          163.60357          163.35114          115.35263    
   1.2742275          18.803015          141.84324          93.763883          93.755409          119.45686          164.93894          164.57971          114.38897    
   1.3372378          21.738912          145.55796          94.326804          94.318685          118.86035          166.03139          165.57161          113.88960    
   1.4002481          25.133218          148.91320          94.970631          94.963475          118.48976          166.90305          166.35336          113.78951    
   1.4632584          29.057510          151.88452          95.706107          95.700677          118.42685          167.57570          166.95198          114.03103    
   1.5262687          33.594540          154.47325          96.545236          96.542393          118.71261          168.07024          167.39394          114.56064    
   1.5892790          38.839980          156.69621          97.501395          97.501990          119.35704          168.40629          167.70368          115.32803    
   1.6522893          44.904442          158.57833          98.589421          98.594143          120.34478          168.60173          167.90188          116.28772    
   1.7152996          51.915806          160.14829          99.825608          99.834817          121.63722          168.67238          168.00391          117.40297    
   1.7783099          60.021923          161.43648          101.22756          101.24117          123.17326          168.63171          168.01902          118.65065    
   1.8413202          69.393725          162.47443          102.81383          102.83131          124.87156          168.49073          167.95073          120.02535    
   1.9043305          80.228838          163.29513          104.60334          104.62382          126.63665          168.25797          167.79829          121.54002    
   1.9673408          92.755742          163.93362          106.61450          106.63701          128.36976          167.93974          167.55895          123.22176    
   2.0303511          107.23859          164.42722          108.86386          108.88762          129.98287          167.54072          167.23036          125.10299    
   2.0933614          123.98279          164.81490          111.36441          111.38897          131.41213          167.06515          166.81275          127.21087    
   2.1563717          143.34142          165.13531          114.12303          114.14830          132.62681          166.51874          166.31088          129.55805    
   2.2193820          165.72270          165.42362          117.13718          117.16319          133.63139          165.91133          165.73593          132.13721    
   2.2823923          191.59859          165.70774          120.39043          120.41710          134.46035          165.26019          165.10781          134.92008    
   2.3454026          221.51473          166.00544          123.84731          123.87416          135.16732          164.59387          164.45795          137.86037    
   2.4084129          256.10196          166.32336          127.44841          127.47456          135.81128          163.95562          163.83198          140.89955    
   2.4714232          296.08963          166.65856          131.10848          131.13282          136.44333          163.40424          163.29042          143.97397    
   2.5344335          342.32097          167.00197          134.72151          134.74304          137.09747          163.00903          162.90358          147.02178    
   2.5974438          395.77085          167.34259          138.17551          138.19363          137.78769          162.83632          162.73841          149.98835    
   2.6604541          457.56638          167.67086          141.37371          141.38834          138.51134          162.93117          162.84036          152.82944    
   2.7234644          529.01063          167.98058          144.25220          144.26366          139.25677          163.30371          163.21979          155.51217    
   2.7864747          611.61018          168.26925          146.78522          146.79402          140.01153          163.92823          163.85118          158.01456    
   2.8494850          707.10678          168.53706          148.97840          148.98510          140.76796          164.75404          164.68390          160.32421    
   2.9124953          817.51419          168.78558          150.85700          150.86210          141.52456          165.72005          165.65683          162.43674    
   2.9755056          945.16058          169.01647          152.45547          152.45937          142.28405          166.76677          166.71038          164.35425    
   3.0385159          1092.7376          169.23095          153.81050          153.81349          143.05031          167.84327          167.79351          166.08362    
   3.1015262          1263.3573          169.42973          154.95726          154.95957          143.82619          168.90982          168.86641          167.63513    
   3.1645365          1460.6175          169.61323          155.92785          155.92964          144.61306          169.93787          169.90046          169.02110    
   3.2275468          1688.6778          169.78186          156.75072          156.75212          145.41131          170.90852          170.87677          170.25489    
   3.2905571          1952.3474          169.93603          157.45083          157.45193          146.22101          171.81066          171.78422          171.35010    
   3.3535674          2257.1863          170.07622          158.04986          158.05072          147.04210          172.63897          172.61751          172.32006    
   3.4165777          2609.6226          170.20287          158.56658          158.56726          147.87435          173.39232          173.37553          173.17739    
   3.4795880          3017.0882          170.31643          159.01722          159.01775          148.71724          174.07238          174.05993          173.93387    
   3.5425983          3488.1753          170.41730          159.41569          159.41611          149.56999          174.68270          174.67414          174.60018    
   3.6056086          4032.8178          170.50589          159.77391          159.77423          150.43157          175.22797          175.22263          175.18590    
   3.6686189          4662.5006          170.58256          160.10197          160.10222          151.30068          175.71356          175.71035          175.69943    
   3.7316292          5390.5019          170.64769          160.40835          160.40853          152.17579          176.14494          176.14238          176.14828    
   3.7946395          6232.1730          170.70160          160.70006          160.70020          153.05518          176.52717          176.52373          176.53942    
   3.8576498          7205.2624          170.74460          160.98280          160.98290          153.93692          176.86460          176.85919          176.87954    
   3.9206601          8330.2896          170.77699          161.26111          161.26118          154.81894          177.16107          177.15328          177.17488    
   3.9836704          9630.9782          170.79901          161.53853          161.53857          155.69907          177.42016          177.41022          177.43109    
   4.0466807          11134.756          170.81092          161.81779          161.81780          156.57510          177.64542          177.63401          177.65312    
   4.1096910          12873.333          170.81289          162.10101          162.10101          157.44482          177.84045          177.82843          177.84536    
   4.1727013          14883.371          170.80511          162.39004          162.39003          158.30618          178.00890          177.99713          178.01179    
   4.2357116          17207.255          170.78772          162.68669          162.68667          159.15733          178.15451          178.14370          178.15614    
   4.2987219          19893.990          170.76081          162.99306          162.99303          159.99677          178.28100          178.27171          178.28206    
   4.3617322          23000.231          170.72448          163.31172          163.31170          160.82336          178.39212          178.38467          178.39311    
   4.4247425          26591.479          170.67876          163.64575          163.64572          161.63639          178.49146          178.48595          178.49269    
   4.4877528          30743.464          170.62368          163.99840          163.99838          162.43544          178.58232          178.57862          178.58389    
   4.5507631          35543.738          170.55925          164.40680          164.40679          163.22119          178.66739          178.66520          178.66925    
   4.6137734          41093.525          170.48543          164.80188          164.80187          163.99128          178.74860          178.74754          178.75064    
   4.6767837          47509.855          170.40220          165.22091          165.22091          164.74597          178.82702          178.82668          178.82908    
   4.7397940          54928.027          170.30947          165.66241          165.66241          165.48416          178.90291          178.90297          178.90488    
   4.8028043          63504.471          170.20717          166.12326          166.12326          166.20443          178.97600          178.97621          178.97778    
   4.8658146          73420.037          170.09518          166.59928          166.59928          166.90517          179.04576          179.04596          179.04731    
   4.9288249          84883.817          169.97338          167.08593          167.08594          167.58488          179.11166          179.11180          179.11299    
   4.9918352          98137.548          169.84161          167.57893          167.57893          168.24225          179.17337          179.17345          179.17450    
   5.0548455          113460.71          169.69972          168.07459          168.07459          168.87635          179.23084          179.23086          179.23179    
   5.1178558          131176.43          169.54751          168.56994          168.56994          169.48657          179.28420          179.28420          179.28502    
   5.1808661          151658.27          169.38480          169.06261          169.06261          170.07261          179.33375          179.33375          179.33446    
   5.2438764          175338.14          169.21139          169.55061          169.55061          170.63439          179.37983          179.37982          179.38044    
   5.3068867          202715.38          169.02707          170.03216          170.03216          171.17196          179.42272          179.42272          179.42325    
   5.3698970          234367.29          168.83163          170.50560          170.50560          171.68550          179.46268          179.46268          179.46314    
   5.4329073          270961.32          168.62487          170.96940          170.96940          172.17527          179.49991          179.49991          179.50031    
   5.4959176          313269.13          168.40661          171.42217          171.42217          172.64163          179.53459          179.53459          179.53494    
   5.5589279          362182.87          168.17668          171.86273          171.86273          173.08504          179.56689          179.56689          179.56719    
   5.6219382          418733.98          167.93495          172.29012          172.29012          173.50602          179.59697          179.59697          179.59722    
   5.6849485          484114.96          167.68130          172.70353          172.70353          173.90518          179.62496          179.62496          179.62519    
   5.7479588          559704.50          167.41569          173.10238          173.10238          174.28317          179.65103          179.65103          179.65122    
   5.8109691          647096.57          167.13812          173.48620          173.48620          174.64069          179.67530          179.67530          179.67547    
   5.8739794          748134.01          166.84869          173.85471          173.85471          174.97846          179.69789          179.69789          179.69803    
   5.9369897          864947.40          166.54755          174.20774          174.20774          175.29726          179.71892          179.71892          179.71904    
   6.0000000          1000000.0          166.23499          174.54526          174.54526          175.59784          179.73849          179.73848          179.73859    
