  LOG10(FN)  FN  Calc./Fitted arg(Hmode) H1c, H1f, H2c, H2f ... [deg]
 -0.30103000         0.50000000        -0.42127419        -0.42000670        -0.17887669        -0.17733302         -1.7826943         -1.7692492         -2.7453877         -2.7261556         -4.7429923         -4.7167121    
 -0.23801970         0.57806983        -0.48412265        -0.48265528        -0.18817158        -0.18680843         -1.9134800         -1.8953233         -2.9430549         -2.9134018         -5.0227186         -5.0022718    
 -0.17500940         0.66832946        -0.55663204        -0.55527121        -0.19780842        -0.19695801         -2.0540417         -2.0356017         -3.1542444         -3.1206276         -5.3128882         -5.3044514    
 -0.11199910         0.77268219        -0.64020175        -0.63918088        -0.20783344        -0.20765941         -2.2052205         -2.1911254         -3.3797724         -3.3500500         -5.6129780         -5.6180046    
 -0.48988796E-01     0.89332853        -0.73641537        -0.73585900        -0.21831885        -0.21880293         -2.3679682         -2.3615731         -3.6204871         -3.6016069         -5.9223063         -5.9368575    
  0.14021504E-01      1.0328125        -0.84705394        -0.84694716        -0.22937239        -0.23037067         -2.5433729         -2.5455452         -3.8772675         -3.8731237         -6.2400236         -6.2561765    
  0.77031804E-01      1.1940755        -0.97410345        -0.97427426        -0.24114895        -0.24249498         -2.7326928         -2.7412388         -4.1510212         -4.1610539         -6.5651099         -6.5740810    
  0.14004210          1.3805181         -1.1197514         -1.1198751        -0.25386423        -0.25547530         -2.9374007         -2.9474596         -4.4426813         -4.4617245         -6.8963803         -6.8922464    
  0.20305240          1.5960717         -1.2863647         -1.2859978        -0.26780975        -0.26975002         -3.1592472         -3.1647726         -4.7532029         -4.7728228         -7.2325052         -7.2150112    
  0.26606270          1.8452818         -1.4764359         -1.4750818        -0.28336824        -0.28584079         -3.4003475         -3.3964676         -5.0835588         -5.0946480         -7.5720506         -7.5472380    
  0.32907300          2.1334035         -1.6924762         -1.6896789        -0.30102778        -0.30429840         -3.6633076         -3.6489853         -5.4347334         -5.4306021         -7.9135494         -7.8917553    
  0.39208330          2.4665124         -1.9368224         -1.9322768        -0.32139241        -0.32567642         -3.9514115         -3.9315111         -5.8077167         -5.7866062         -8.2556172         -8.2474348    
  0.45509360          2.8516328         -2.2113008         -2.2049705        -0.34518753        -0.35054410         -4.2689059         -4.2542441         -6.2034963         -6.1695491         -8.5971329         -8.6087904    
  0.51810390          3.2968858         -2.5166588         -2.5088937        -0.37325898        -0.37953253         -4.6214467         -4.6234940         -6.6230484         -6.5852684         -8.9375137         -8.9675282    
  0.58111420          3.8116604         -2.8516236         -2.8432498        -0.40656662        -0.41339426         -5.0168067         -5.0305664         -7.0673275         -7.0367435         -9.2771246         -9.3158358    
  0.64412450          4.4068118         -3.2114014         -3.2036779        -0.44617536        -0.45305296         -5.4659775         -5.4587137         -7.5372551         -7.5231126         -9.6178782         -9.6505130    
  0.70713480          5.0948899         -3.5855151         -3.5797411        -0.49324764        -0.49962759         -5.9847000         -5.9570454         -8.0337066         -8.0399118         -9.9640918         -9.9765647    
  0.77014510          5.8904043         -3.9556285         -3.9523121        -0.54904133        -0.55442944         -6.5947089         -6.5888780         -8.5574977         -8.5806148         -10.323669         -10.308954    
  0.83315540          6.8101300         -4.2965856         -4.2947077        -0.61491552        -0.61894287         -7.3214397         -7.3461544         -9.1093699         -9.1391408         -10.709629         -10.671948    
  0.89616570          7.8734614         -4.5867242         -4.5836770        -0.69234329        -0.69480419         -8.1822670         -8.2100598         -9.6899748         -9.7125257         -11.141851         -11.096508    
  0.95917600          9.1028210         -4.8236948         -4.8160875        -0.78292954        -0.78378859         -9.1694884         -9.1692993         -10.299859         -10.302680         -11.648599         -11.616921    
   1.0221863          10.524132         -5.0243073         -5.0107383        -0.88842995        -0.88780705         -10.250449         -10.212831         -10.939451         -10.916330         -12.266903         -12.267893    
   1.0851966          12.167367         -5.2084003         -5.1911460         -1.0107672         -1.0089091         -11.385970         -11.325905         -11.609046         -11.562942         -13.040640         -13.082863    
   1.1482069          14.067175         -5.3894391         -5.3723363         -1.1520418         -1.1492851         -12.544751         -12.489931         -12.308799         -12.251330         -14.015944         -14.093689    
   1.2112172          16.263619         -5.5748404         -5.5610033         -1.3145353         -1.3112630         -13.709105         -13.685025         -13.038718         -12.986239         -15.235579         -15.331358    
   1.2742275          18.803015         -5.7685123         -5.7598223         -1.5007073         -1.4973002         -14.876383         -14.894664         -13.798668         -13.766271         -16.735401         -16.827198    
   1.3372378          21.738912         -5.9725684         -5.9697966         -1.7131891         -1.7099752         -16.057283         -16.111411         -14.588383         -14.584076         -18.544735         -18.614000    
   1.4002481          25.133218         -6.1881002         -6.1908191         -1.9547829         -1.9519952         -17.272261         -17.341991         -15.407498         -15.428959         -20.689470         -20.726589    
   1.4632584          29.057510         -6.4153482         -6.4218098         -2.2284749         -2.2262359         -18.548126         -18.609780         -16.255595         -16.291105         -23.195345         -23.201560    
   1.5262687          33.594540         -6.6535040         -6.6608920         -2.5374705         -2.5358286         -19.916020         -19.953552         -17.132296         -17.165835         -26.089825         -26.076085    
   1.5892790          38.839980         -6.9002918         -6.9053985         -2.8852471         -2.8842841         -21.410762         -21.422752         -18.037401         -18.055974         -29.402208         -29.385844    
   1.6522893          44.904442         -7.1514823         -7.1514820         -3.2756021         -3.2756023         -23.070840         -23.070839         -18.971087         -18.971087         -33.162241         -33.162240    
   1.7152996          51.915806         -7.4005495         -7.3934887         -3.7126539         -3.7142714         -24.938247         -24.948669         -19.934216         -19.923744         -37.397540         -37.429121    
   1.7783099          60.021923         -7.6387441         -7.6236237         -4.2007435         -4.2050444         -27.057475         -27.099469         -20.928743         -20.924497         -42.130040         -42.199442    
   1.8413202          69.393725         -7.8558336         -7.8324454         -4.7441919         -4.7524251         -29.473153         -29.556198         -21.958281         -21.978004         -47.371810         -47.472620    
   1.9043305          80.228838         -8.0415566         -8.0103120         -5.3468766         -5.3599139         -32.226296         -32.341457         -23.028851         -23.082469         -53.120928         -53.233557    
   1.9673408          92.755742         -8.1874867         -8.1493273         -6.0115962         -6.0292258         -35.349711         -35.469637         -24.149872         -24.233284         -59.358644         -59.454394    
   2.0303511          107.23859         -8.2887186         -8.2450077         -6.7391814         -6.7597966         -38.863732         -38.950531         -25.335444         -25.430157         -66.049609         -66.099512    
   2.0933614          123.98279         -8.3448224         -8.2970695         -7.5273017         -7.5486752         -42.773730         -42.793123         -26.605985         -26.685401         -73.146966         -73.133335    
   2.1563717          143.34142         -8.3598673         -8.3092752         -8.3689362         -8.3900459         -47.070700         -47.007924         -27.990258         -28.030419         -80.603047         -80.529353    
   2.2193820          165.72270         -8.3416899         -8.2887341         -9.2505417         -9.2728176         -51.735670         -51.606679         -29.527720         -29.517920         -88.383976         -88.278037    
   2.2823923          191.59859         -8.3007552         -8.2450699         -10.150147         -10.176138         -56.747720         -56.599586         -31.270919         -31.219196         -96.483551         -96.391366    
   2.3454026          221.51473         -8.2489161         -8.1895810         -11.035991         -11.066299         -62.093957         -61.991749         -33.287214         -33.217662         -104.93016         -104.90228    
   2.4084129          256.10196         -8.1982829         -8.1343050         -11.867006         -11.899179         -67.778491         -67.781468         -35.658408         -35.600920         -113.78208         -113.85802    
   2.4714232          296.08963         -8.1603630         -8.0910089         -12.596999         -12.628265         -73.826941         -73.962330         -38.476316         -38.453449         -123.11090         -123.30681    
   2.5344335          342.32097         -8.1455940         -8.0703732         -13.183791         -13.214847         -80.284199         -80.529342         -41.832945         -41.850976         -132.97790         -133.27769    
   2.5974438          395.77085         -8.1633030         -8.0816983         -13.601484         -13.636874         -87.205766         -87.487476         -45.807101         -45.856641         -143.41044         -143.75530    
   2.6604541          457.56638         -8.2219800         -8.1332126         -13.849768         -13.894055         -94.645779         -94.860022         -50.453544         -50.518542         -154.38503         -154.65557    
   2.7234644          529.01063         -8.3296430         -8.2326965         -13.954129         -14.007882         -102.64644         -102.69421         -55.800895         -55.868462         -165.82014         -165.81400    
   2.7864747          611.61018         -8.4941075         -8.3879674         -13.957089         -14.016771         -111.23298         -111.06224         -61.858341         -61.921970         -177.57782         -176.99958    
   2.8494850          707.10678         -8.7230921         -8.6069525         -13.906659         -13.968107         -120.41549         -120.05606         -68.625101         -68.680553          170.53087          172.04142    
   2.9124953          817.51419         -9.0242657         -8.8974422         -13.847781         -13.909837         -130.19536         -129.77389         -76.097022         -76.136225          158.74353          161.52444    
   2.9755056          945.16058         -9.4053212         -9.2668931         -13.818358         -13.883917         -140.57174         -140.29575         -84.268703         -84.278257          147.35319          151.56861    
   3.0385159          1092.7376         -9.8741486         -9.7226067         -13.848648         -13.922896         -151.54382         -151.64702         -93.132278         -93.100161          136.72598          142.14602    
   3.1015262          1263.3573         -10.439087         -10.272312         -13.962342         -14.049722         -163.10815         -163.75605         -102.67440         -102.60346          127.32652          132.99694    
   3.1645365          1460.6175         -11.109200         -10.924864         -14.178182         -14.280037         -175.25346         -176.42571         -112.87236         -112.79376          119.74683          123.32846    
   3.2275468          1688.6778         -11.894526         -11.690666         -14.511582         -14.625745          172.04394          170.65274         -123.68992         -123.66495          114.73626          110.19770    
   3.2905571          1952.3474         -12.806253         -12.581656         -14.976034         -15.098470          158.82294          157.83104         -135.07257         -135.17038          113.23429          71.079769    
   3.3535674          2257.1863         -13.856822         -13.611024         -15.584295         -15.711761          145.13948          145.40894         -146.94261         -147.18757          116.40961         -29.407511    
   3.4165777          2609.6226         -15.059913         -14.793034         -16.349351         -16.481506          131.06924          133.56494         -159.19350         -159.49431          125.70846         -51.462960    
   3.4795880          3017.0882         -16.430295         -16.143211         -17.285254         -17.424883          116.71143          122.34084         -171.68354         -171.78020          142.91366         -60.059161    
   3.5425983          3488.1753         -17.983550         -17.678811         -18.407768         -18.558780          102.19350          111.66789          175.77143          176.29586          170.21528         -65.418147    
   3.6056086          4032.8178         -19.735921         -19.419234         -19.734811         -19.898805          87.676606          101.40636          163.40649          165.02426         -149.70475         -69.360639    
   3.6686189          4662.5006         -21.704876         -21.386029         -21.286280         -21.459593          73.361796          91.379536          151.51761          154.57896         -93.571595         -72.476010    
   3.7316292          5390.5019         -23.910754         -23.602376         -23.083058         -23.256381          59.497463          81.397703          140.47350          144.98763         -17.396629         -75.026932    
   3.7946395          6232.1730         -26.377955         -26.092268         -25.145842         -25.307026          46.388111          71.276022          130.72974          136.11659          83.667114         -77.157013    
   3.8576498          7205.2624         -29.133688         -28.879790         -27.494785         -27.633141          34.404804          60.852797          122.84595          127.60091         -144.50254         -78.956518    
   3.9206601          8330.2896         -32.205474         -31.988708         -30.148944         -30.259081          23.997630          50.014165          117.50668          118.48493          25.209056         -80.487921    
   3.9836704          9630.9782         -35.619232         -35.441983         -33.124691         -33.208359          15.710608          38.727140          115.54702          104.93822         -118.60094         -81.797442    
   4.0466807          11134.756         -39.397368         -39.260279         -36.433161         -36.498100          10.199498          27.073699          117.98372          45.808443          154.44027         -82.920882    
   4.1096910          12873.333         -43.556021         -43.458912         -40.077355         -40.133125          8.2529524          15.265908          126.05293         -43.153808          136.83061         -83.886864    
   4.1727013          14883.371         -48.101682         -48.043841         -44.049197         -44.101592          10.817302          3.6185054          141.25450         -57.944682         -156.39010         -84.718786    
   4.2357116          17207.255         -53.028636         -53.008478         -48.327097         -48.373900          19.024942         -7.5237793          165.40195         -64.623436          12.856504         -85.436076    
   4.2987219          19893.990         -58.318244         -58.333399         -52.875113         -52.905833          34.225783         -17.871563         -159.32457         -69.014426         -53.720893         -86.055043    
   4.3617322          23000.231         -63.941575         -63.990294         -57.645329         -57.645819          58.020746         -27.244794         -110.32685         -72.318970          29.921354         -86.589490    
   4.4247425          26591.479         -69.866436         -69.949978         -62.584669         -62.544918          92.296235         -35.578250         -44.543503         -74.959341         -64.999547         -87.051164    
   4.4877528          30743.464         -76.068750         -76.192834         -67.646132         -67.567165          139.25955         -42.894126          41.587463         -77.134274          58.904944         -87.450105    
   4.5507631          35543.738         -82.545883         -82.719248         -72.801859         -72.697680         -158.45372         -49.266326          153.35808         -78.956702          86.381137         -87.794923    
   4.6137734          41093.525         -89.329811         -89.557861         -78.055718         -77.946569         -78.006278         -54.791567         -66.947459         -80.499581          70.943921         -88.093013    
   4.6767837          47509.855         -96.490082         -96.770147         -83.445314         -83.347892          24.110404         -59.571087          107.21525         -81.814390          76.553852         -88.350744    
   4.7397940          54928.027         -104.13085         -104.45060         -89.037873         -88.954246          151.88917         -63.701013         -38.016586         -82.939725          179.61059         -88.573601    
   4.8028043          63504.471         -112.37733         -112.72184         -94.915682         -94.828597         -50.020715         -67.268251         -135.53357         -83.905752          111.32254         -88.766318    
   4.8658146          73420.037         -121.35878         -121.72376         -101.15801         -101.03550          143.81215         -70.349385         -177.03251         -84.736746         -19.477425         -88.932980    
   4.9288249          84883.817         -131.19359         -131.59608         -107.82529         -107.63359          19.743899         -73.011024         -152.76978         -85.452634         -82.985655         -89.077117    
   4.9918352          98137.548         -141.98175         -142.45617         -114.95048         -114.67042         -54.788063         -75.310730         -51.303807         -86.070016          75.547797         -89.201776    
   5.0548455          113460.71         -153.80690         -154.37917         -122.53974         -122.17932         -71.093938         -77.298118          140.76821         -86.602856         -79.457857         -89.309591    
   5.1178558          131176.43         -166.74644         -167.39296         -130.58092         -130.17753         -19.041735         -79.015910          79.086541         -87.062991          31.695436         -89.402842    
   5.1808661          151658.27          179.11459          178.50012         -139.05547         -138.66487          113.15932         -80.500906          141.83700         -87.460507         -49.352976         -89.483495    
