   LOG10(FN) FN  Arguments: Lamda11, Lamda22 ... [deg]
 -0.30103000         0.50000000          113.50710          92.633805          92.633825    
 -0.29472897         0.50730721          113.78900          92.672241          92.672261    
 -0.28842794         0.51472121          114.07331          92.711237          92.711257    
 -0.28212691         0.52224356          114.36001          92.750799          92.750820    
 -0.27582588         0.52987585          114.64911          92.790937          92.790958    
 -0.26952485         0.53761968          114.94058          92.831659          92.831680    
 -0.26322382         0.54547667          115.23441          92.872973          92.872994    
 -0.25692279         0.55344850          115.53058          92.914888          92.914909    
 -0.25062176         0.56153683          115.82909          92.957412          92.957434    
 -0.24432073         0.56974336          116.12990          93.000554          93.000576    
 -0.23801970         0.57806983          116.43300          93.044323          93.044346    
 -0.23171867         0.58651799          116.73838          93.088728          93.088751    
 -0.22541764         0.59508961          117.04600          93.133779          93.133802    
 -0.21911661         0.60378649          117.35584          93.179483          93.179507    
 -0.21281558         0.61261048          117.66789          93.225852          93.225876    
 -0.20651455         0.62156343          117.98211          93.272894          93.272918    
 -0.20021352         0.63064722          118.29848          93.320618          93.320643    
 -0.19391249         0.63986376          118.61697          93.369036          93.369061    
 -0.18761146         0.64921500          118.93755          93.418156          93.418182    
 -0.18131043         0.65870290          119.26019          93.467989          93.468015    
 -0.17500940         0.66832946          119.58485          93.518545          93.518571    
 -0.16870837         0.67809671          119.91151          93.569834          93.569861    
 -0.16240734         0.68800669          120.24013          93.621866          93.621894    
 -0.15610631         0.69806151          120.57067          93.674653          93.674681    
 -0.14980528         0.70826328          120.90310          93.728205          93.728233    
 -0.14350425         0.71861413          121.23737          93.782533          93.782562    
 -0.13720322         0.72911626          121.57344          93.837648          93.837677    
 -0.13090219         0.73977187          121.91128          93.893561          93.893591    
 -0.12460116         0.75058321          122.25085          93.950284          93.950314    
 -0.11830013         0.76155255          122.59209          94.007827          94.007858    
 -0.11199910         0.77268219          122.93496          94.066204          94.066234    
 -0.10569807         0.78397450          123.27942          94.125424          94.125456    
 -0.99397036E-01     0.79543183          123.62541          94.185502          94.185533    
 -0.93096006E-01     0.80705660          123.97290          94.246447          94.246479    
 -0.86794976E-01     0.81885126          124.32183          94.308274          94.308306    
 -0.80493946E-01     0.83081830          124.67214          94.370993          94.371026    
 -0.74192916E-01     0.84296023          125.02379          94.434619          94.434652    
 -0.67891886E-01     0.85527960          125.37673          94.499163          94.499197    
 -0.61590856E-01     0.86777902          125.73089          94.564639          94.564673    
 -0.55289826E-01     0.88046110          126.08623          94.631059          94.631094    
 -0.48988796E-01     0.89332853          126.44269          94.698437          94.698473    
 -0.42687766E-01     0.90638401          126.80020          94.766787          94.766823    
 -0.36386736E-01     0.91963028          127.15872          94.836121          94.836158    
 -0.30085706E-01     0.93307015          127.51818          94.906454          94.906491    
 -0.23784676E-01     0.94670642          127.87852          94.977800          94.977838    
 -0.17483646E-01     0.96054199          128.23969          95.050173          95.050211    
 -0.11182616E-01     0.97457975          128.60162          95.123586          95.123625    
 -0.48815859E-02     0.98882267          128.96425          95.198055          95.198095    
  0.14194441E-02      1.0032737          129.32752          95.273595          95.273635    
  0.77204741E-02      1.0179360          129.69137          95.350220          95.350260    
  0.14021504E-01      1.0328125          130.05572          95.427944          95.427986    
  0.20322534E-01      1.0479065          130.42052          95.506784          95.506826    
  0.26623564E-01      1.0632210          130.78571          95.586755          95.586798    
  0.32924594E-01      1.0787594          131.15122          95.667872          95.667915    
  0.39225624E-01      1.0945248          131.51697          95.750152          95.750195    
  0.45526654E-01      1.1105207          131.88292          95.833609          95.833653    
  0.51827684E-01      1.1267503          132.24899          95.918260          95.918305    
  0.58128714E-01      1.1432171          132.61512          96.004122          96.004168    
  0.64429744E-01      1.1599246          132.98125          96.091211          96.091258    
  0.70730774E-01      1.1768762          133.34730          96.179544          96.179591    
  0.77031804E-01      1.1940755          133.71321          96.269137          96.269185    
  0.83332834E-01      1.2115263          134.07892          96.360008          96.360057    
  0.89633864E-01      1.2292320          134.44435          96.452175          96.452224    
  0.95934894E-01      1.2471965          134.80946          96.545653          96.545703    
  0.10223592          1.2654236          135.17417          96.640462          96.640513    
  0.10853695          1.2839170          135.53841          96.736619          96.736671    
  0.11483798          1.3026807          135.90213          96.834142          96.834195    
  0.12113901          1.3217186          136.26525          96.933050          96.933103    
  0.12744004          1.3410348          136.62773          97.033360          97.033414    
  0.13374107          1.3606332          136.98949          97.135092          97.135147    
  0.14004210          1.3805181          137.35047          97.238265          97.238320    
  0.14634313          1.4006936          137.71061          97.342896          97.342953    
  0.15264416          1.4211639          138.06986          97.449007          97.449064    
  0.15894519          1.4419334          138.42815          97.556615          97.556673    
  0.16524622          1.4630064          138.78542          97.665741          97.665799    
  0.17154725          1.4843874          139.14161          97.776404          97.776464    
  0.17784828          1.5060808          139.49667          97.888624          97.888685    
  0.18414931          1.5280913          139.85054          98.002422          98.002484    
  0.19045034          1.5504235          140.20317          98.117818          98.117881    
  0.19675137          1.5730820          140.55450          98.234833          98.234896    
  0.20305240          1.5960717          140.90448          98.353486          98.353551    
  0.20935343          1.6193974          141.25306          98.473800          98.473865    
  0.21565446          1.6430639          141.60018          98.595794          98.595860    
  0.22195549          1.6670764          141.94579          98.719491          98.719558    
  0.22825652          1.6914397          142.28986          98.844912          98.844980    
  0.23455755          1.7161591          142.63232          98.972077          98.972146    
  0.24085858          1.7412398          142.97313          99.101010          99.101080    
  0.24715961          1.7666870          143.31225          99.231732          99.231803    
  0.25346064          1.7925061          143.64963          99.364264          99.364336    
  0.25976167          1.8187025          143.98523          99.498630          99.498703    
  0.26606270          1.8452818          144.31902          99.634851          99.634925    
  0.27236373          1.8722495          144.65094          99.772950          99.773026    
  0.27866476          1.8996114          144.98096          99.912950          99.913026    
  0.28496579          1.9273731          145.30904          100.05487          100.05495    
  0.29126682          1.9555405          145.63515          100.19874          100.19882    
  0.29756785          1.9841196          145.95925          100.34458          100.34466    
  0.30386888          2.0131164          146.28130          100.49241          100.49249    
  0.31016991          2.0425369          146.60128          100.64226          100.64234    
  0.31647094          2.0723874          146.91916          100.79414          100.79423    
  0.32277197          2.1026741          147.23490          100.94809          100.94817    
  0.32907300          2.1334035          147.54848          101.10412          101.10421    
  0.33537403          2.1645820          147.85986          101.26226          101.26235    
  0.34167506          2.1962161          148.16903          101.42254          101.42263    
  0.34797609          2.2283125          148.47596          101.58497          101.58506    
  0.35427712          2.2608780          148.78063          101.74958          101.74967    
  0.36057815          2.2939194          149.08301          101.91640          101.91649    
  0.36687918          2.3274437          149.38308          102.08544          102.08553    
  0.37318021          2.3614579          149.68083          102.25674          102.25683    
  0.37948124          2.3959693          149.97623          102.43030          102.43040    
  0.38578227          2.4309850          150.26927          102.60617          102.60627    
  0.39208330          2.4665124          150.55994          102.78436          102.78446    
  0.39838433          2.5025591          150.84822          102.96490          102.96500    
  0.40468536          2.5391325          151.13409          103.14781          103.14791    
  0.41098639          2.5762404          151.41755          103.33311          103.33321    
  0.41728742          2.6138907          151.69858          103.52083          103.52093    
  0.42358845          2.6520912          151.97717          103.71098          103.71109    
  0.42988948          2.6908500          152.25332          103.90360          103.90371    
  0.43619051          2.7301752          152.52701          104.09871          104.09882    
  0.44249154          2.7700751          152.79824          104.29633          104.29643    
  0.44879257          2.8105581          153.06701          104.49647          104.49658    
  0.45509360          2.8516328          153.33331          104.69917          104.69929    
  0.46139463          2.8933078          153.59714          104.90445          104.90457    
  0.46769566          2.9355918          153.85849          105.11233          105.11245    
  0.47399669          2.9784938          154.11736          105.32283          105.32295    
  0.48029772          3.0220227          154.37375          105.53597          105.53609    
  0.48659875          3.0661878          154.62766          105.75177          105.75189    
  0.49289978          3.1109984          154.87910          105.97026          105.97038    
  0.49920081          3.1564638          155.12806          106.19145          106.19157    
  0.50550184          3.2025937          155.37455          106.41536          106.41549    
  0.51180287          3.2493977          155.61856          106.64202          106.64215    
  0.51810390          3.2968858          155.86011          106.87144          106.87157    
  0.52440493          3.3450679          156.09920          107.10364          107.10377    
  0.53070596          3.3939541          156.33583          107.33865          107.33878    
  0.53700699          3.4435548          156.57002          107.57647          107.57660    
  0.54330802          3.4938803          156.80176          107.81712          107.81726    
  0.54960905          3.5449413          157.03107          108.06063          108.06077    
  0.55591008          3.5967486          157.25795          108.30701          108.30715    
  0.56221111          3.6493130          157.48241          108.55626          108.55640    
  0.56851214          3.7026456          157.70446          108.80842          108.80856    
  0.57481317          3.7567576          157.92412          109.06348          109.06363    
  0.58111420          3.8116604          158.14139          109.32147          109.32162    
  0.58741523          3.8673656          158.35628          109.58239          109.58254    
  0.59371626          3.9238849          158.56880          109.84627          109.84642    
  0.60001729          3.9812302          158.77898          110.11310          110.11325    
  0.60631832          4.0394136          158.98681          110.38289          110.38305    
  0.61261935          4.0984473          159.19231          110.65567          110.65582    
  0.61892038          4.1583437          159.39549          110.93142          110.93158    
  0.62522141          4.2191155          159.59638          111.21017          111.21033    
  0.63152244          4.2807754          159.79497          111.49192          111.49208    
  0.63782347          4.3433365          159.99129          111.77666          111.77682    
  0.64412450          4.4068118          160.18536          112.06441          112.06457    
  0.65042553          4.4712148          160.37718          112.35516          112.35533    
  0.65672656          4.5365590          160.56677          112.64893          112.64910    
  0.66302759          4.6028582          160.75414          112.94570          112.94587    
  0.66932862          4.6701263          160.93932          113.24547          113.24564    
  0.67562965          4.7383775          161.12232          113.54825          113.54842    
  0.68193068          4.8076261          161.30315          113.85402          113.85420    
  0.68823171          4.8778868          161.48183          114.16279          114.16297    
  0.69453274          4.9491742          161.65838          114.47454          114.47472    
  0.70083377          5.0215035          161.83281          114.78927          114.78945    
  0.70713480          5.0948899          162.00514          115.10697          115.10715    
  0.71343583          5.1693488          162.17539          115.42762          115.42780    
  0.71973686          5.2448958          162.34358          115.75121          115.75140    
  0.72603789          5.3215469          162.50972          116.07773          116.07792    
  0.73233892          5.3993182          162.67383          116.40716          116.40735    
  0.73863995          5.4782261          162.83592          116.73948          116.73967    
  0.74494098          5.5582872          162.99603          117.07467          117.07486    
  0.75124201          5.6395183          163.15415          117.41271          117.41291    
  0.75754304          5.7219366          163.31032          117.75358          117.75378    
  0.76384407          5.8055594          163.46454          118.09725          118.09745    
  0.77014510          5.8904043          163.61684          118.44369          118.44389    
  0.77644613          5.9764891          163.76724          118.79287          118.79308    
  0.78274716          6.0638320          163.91575          119.14478          119.14498    
  0.78904819          6.1524514          164.06238          119.49936          119.49956    
  0.79534922          6.2423659          164.20717          119.85658          119.85679    
  0.80165025          6.3335945          164.35013          120.21642          120.21663    
  0.80795128          6.4261563          164.49126          120.57883          120.57904    
  0.81425231          6.5200708          164.63060          120.94377          120.94399    
  0.82055334          6.6153579          164.76817          121.31120          121.31141    
  0.82685437          6.7120375          164.90397          121.68107          121.68129    
  0.83315540          6.8101300          165.03802          122.05334          122.05356    
  0.83945643          6.9096561          165.17035          122.42796          122.42818    
  0.84575746          7.0106367          165.30098          122.80488          122.80510    
  0.85205849          7.1130931          165.42991          123.18404          123.18427    
  0.85835952          7.2170468          165.55717          123.56540          123.56563    
  0.86466055          7.3225198          165.68277          123.94890          123.94913    
  0.87096158          7.4295342          165.80674          124.33448          124.33471    
  0.87726261          7.5381125          165.92909          124.72207          124.72231    
  0.88356364          7.6482776          166.04984          125.11163          125.11186    
  0.88986467          7.7600528          166.16900          125.50309          125.50332    
  0.89616570          7.8734614          166.28659          125.89637          125.89661    
  0.90246673          7.9885275          166.40264          126.29142          126.29166    
  0.90876776          8.1052752          166.51715          126.68817          126.68840    
  0.91506879          8.2237291          166.63014          127.08654          127.08678    
  0.92136982          8.3439141          166.74164          127.48647          127.48671    
  0.92767085          8.4658555          166.85165          127.88788          127.88812    
  0.93397188          8.5895791          166.96020          128.29070          128.29094    
  0.94027291          8.7151108          167.06729          128.69485          128.69509    
  0.94657394          8.8424771          167.17296          129.10026          129.10050    
  0.95287497          8.9717048          167.27721          129.50684          129.50709    
  0.95917600          9.1028210          167.38005          129.91452          129.91477    
  0.96547703          9.2358535          167.48152          130.32322          130.32347    
  0.97177806          9.3708301          167.58161          130.73286          130.73311    
  0.97807909          9.5077793          167.68035          131.14334          131.14360    
  0.98438012          9.6467300          167.77776          131.55460          131.55485    
  0.99068115          9.7877114          167.87385          131.96654          131.96680    
  0.99698218          9.9307531          167.96863          132.37908          132.37934    
   1.0032832          10.075885          168.06212          132.79214          132.79239    
   1.0095842          10.223138          168.15433          133.20562          133.20588    
   1.0158853          10.372544          168.24529          133.61945          133.61970    
   1.0221863          10.524132          168.33500          134.03353          134.03378    
   1.0284873          10.677936          168.42348          134.44777          134.44803    
   1.0347884          10.833988          168.51074          134.86209          134.86235    
   1.0410894          10.992321          168.59681          135.27641          135.27666    
