  LOG10(FN)  FN  Calc./Fitted arg(Hmode) H1c, H1f, H2c, H2f ... [deg]
 -0.30103000         0.50000000        -0.55537920        -0.55982790        -0.55533516        -0.55795264        -0.43415953        -0.37398867    
 -0.29472897         0.50730721        -0.55806113        -0.56251709        -0.55801645        -0.56041528        -0.43631765        -0.37821185    
 -0.28842794         0.51472121        -0.56074472        -0.56518080        -0.56069938        -0.56287908        -0.43849574        -0.38245624    
 -0.28212691         0.52224356        -0.56342975        -0.56781980        -0.56338375        -0.56534473        -0.44069432        -0.38672121    
 -0.27582588         0.52987585        -0.56611602        -0.57043494        -0.56606935        -0.56781290        -0.44291396        -0.39100607    
 -0.26952485         0.53761968        -0.56880333        -0.57302705        -0.56875598        -0.57028421        -0.44515522        -0.39531016    
 -0.26322382         0.54547667        -0.57149145        -0.57559705        -0.57144341        -0.57275925        -0.44741867        -0.39963279    
 -0.25692279         0.55344850        -0.57418017        -0.57814586        -0.57413143        -0.57523859        -0.44970490        -0.40397328    
 -0.25062176         0.56153683        -0.57686928        -0.58067443        -0.57681983        -0.57772273        -0.45201453        -0.40833091    
 -0.24432073         0.56974336        -0.57955854        -0.58318375        -0.57950837        -0.58021217        -0.45434817        -0.41270498    
 -0.23801970         0.57806983        -0.58224773        -0.58567484        -0.58219683        -0.58270732        -0.45670644        -0.41709479    
 -0.23171867         0.58651799        -0.58493662        -0.58814871        -0.58488497        -0.58520858        -0.45909000        -0.42149963    
 -0.22541764         0.59508961        -0.58762496        -0.59060642        -0.58757256        -0.58771631        -0.46149951        -0.42591879    
 -0.21911661         0.60378649        -0.59031252        -0.59304902        -0.59025936        -0.59023079        -0.46393562        -0.43035156    
 -0.21281558         0.61261048        -0.59299906        -0.59547758        -0.59294512        -0.59275228        -0.46639904        -0.43479724    
 -0.20651455         0.62156343        -0.59568433        -0.59789317        -0.59562961        -0.59528100        -0.46889046        -0.43925514    
 -0.20021352         0.63064722        -0.59836808        -0.60029688        -0.59831256        -0.59781708        -0.47141058        -0.44372455    
 -0.19391249         0.63986376        -0.60105005        -0.60268978        -0.60099372        -0.60036063        -0.47396015        -0.44820481    
 -0.18761146         0.64921500        -0.60372999        -0.60507294        -0.60367283        -0.60291172        -0.47653989        -0.45269524    
 -0.18131043         0.65870290        -0.60640762        -0.60744743        -0.60634963        -0.60547034        -0.47915057        -0.45719519    
 -0.17500940         0.66832946        -0.60908269        -0.60981430        -0.60902386        -0.60803645        -0.48179294        -0.46170403    
 -0.16870837         0.67809671        -0.61175493        -0.61217460        -0.61169523        -0.61060994        -0.48446781        -0.46622114    
 -0.16240734         0.68800669        -0.61442405        -0.61452933        -0.61436348        -0.61319067        -0.48717595        -0.47074592    
 -0.15610631         0.69806151        -0.61708978        -0.61687951        -0.61702833        -0.61577843        -0.48991819        -0.47527781    
 -0.14980528         0.70826328        -0.61975184        -0.61922611        -0.61968949        -0.61837298        -0.49269534        -0.47981625    
 -0.14350425         0.71861413        -0.62240993        -0.62157007        -0.62234668        -0.62097401        -0.49550825        -0.48436073    
 -0.13720322         0.72911626        -0.62506378        -0.62391232        -0.62499960        -0.62358117        -0.49835776        -0.48891077    
 -0.13090219         0.73977187        -0.62771308        -0.62625373        -0.62764796        -0.62619406        -0.50124475        -0.49346591    
 -0.12460116         0.75058321        -0.63035753        -0.62859516        -0.63029147        -0.62881224        -0.50417009        -0.49802574    
 -0.11830013         0.76155255        -0.63299683        -0.63093740        -0.63292981        -0.63143520        -0.50713468        -0.50258989    
 -0.11199910         0.77268219        -0.63563068        -0.63328122        -0.63556268        -0.63406243        -0.51013943        -0.50715801    
 -0.10569807         0.78397450        -0.63825876        -0.63562734        -0.63818976        -0.63669332        -0.51318525        -0.51172983    
 -0.99397036E-01     0.79543183        -0.64088075        -0.63797643        -0.64081075        -0.63932726        -0.51627309        -0.51630508    
 -0.93096006E-01     0.80705660        -0.64349634        -0.64032910        -0.64342532        -0.64196359        -0.51940388        -0.52088358    
 -0.86794976E-01     0.81885126        -0.64610520        -0.64268593        -0.64603315        -0.64460160        -0.52257860        -0.52546519    
 -0.80493946E-01     0.83081830        -0.64870701        -0.64504742        -0.64863390        -0.64724056        -0.52579823        -0.53004980    
 -0.74192916E-01     0.84296023        -0.65130142        -0.64741404        -0.65122725        -0.64987968        -0.52906374        -0.53463738    
 -0.67891886E-01     0.85527960        -0.65388811        -0.64978617        -0.65381285        -0.65251817        -0.53237614        -0.53922795    
 -0.61590856E-01     0.86777902        -0.65646673        -0.65216417        -0.65639038        -0.65515519        -0.53573645        -0.54382159    
 -0.55289826E-01     0.88046110        -0.65903694        -0.65454830        -0.65895948        -0.65778988        -0.53914571        -0.54841844    
 -0.48988796E-01     0.89332853        -0.66159839        -0.65693877        -0.66151980        -0.66042135        -0.54260494        -0.55301870    
 -0.42687766E-01     0.90638401        -0.66415073        -0.65933575        -0.66407099        -0.66304868        -0.54611520        -0.55762265    
 -0.36386736E-01     0.91963028        -0.66669359        -0.66173931        -0.66661269        -0.66567096        -0.54967757        -0.56223061    
 -0.30085706E-01     0.93307015        -0.66922662        -0.66414946        -0.66914454        -0.66828723        -0.55329313        -0.56684299    
 -0.23784676E-01     0.94670642        -0.67174946        -0.66656617        -0.67166618        -0.67089653        -0.55696296        -0.57146026    
 -0.17483646E-01     0.96054199        -0.67426172        -0.66898932        -0.67417723        -0.67349788        -0.56068817        -0.57608297    
 -0.11182616E-01     0.97457975        -0.67676304        -0.67141873        -0.67667732        -0.67609031        -0.56446989        -0.58071172    
 -0.48815859E-02     0.98882267        -0.67925305        -0.67385414        -0.67916607        -0.67867282        -0.56830923        -0.58534720    
  0.14194441E-02      1.0032737        -0.68173135        -0.67629524        -0.68164310        -0.68124443        -0.57220735        -0.58999016    
  0.77204741E-02      1.0179360        -0.68419756        -0.67874165        -0.68410803        -0.68380414        -0.57616540        -0.59464145    
  0.14021504E-01      1.0328125        -0.68665129        -0.68119291        -0.68656046        -0.68635096        -0.58018455        -0.59930197    
  0.20322534E-01      1.0479065        -0.68909216        -0.68364851        -0.68900000        -0.68888391        -0.58426596        -0.60397270    
  0.26623564E-01      1.0632210        -0.69151975        -0.68610788        -0.69142625        -0.69140201        -0.58841084        -0.60865469    
  0.32924594E-01      1.0787594        -0.69393367        -0.68857035        -0.69383880        -0.69390429        -0.59262038        -0.61334908    
  0.39225624E-01      1.0945248        -0.69633351        -0.69103523        -0.69623727        -0.69638981        -0.59689580        -0.61805707    
  0.45526654E-01      1.1105207        -0.69871887        -0.69350174        -0.69862122        -0.69885762        -0.60123831        -0.62277993    
  0.51827684E-01      1.1267503        -0.70108933        -0.69596905        -0.70099026        -0.70130680        -0.60564917        -0.62751903    
  0.58128714E-01      1.1432171        -0.70344447        -0.69843628        -0.70334396        -0.70373647        -0.61012960        -0.63227579    
  0.64429744E-01      1.1599246        -0.70578388        -0.70090247        -0.70568190        -0.70614574        -0.61468087        -0.63705170    
  0.70730774E-01      1.1768762        -0.70810713        -0.70336663        -0.70800366        -0.70853376        -0.61930425        -0.64184833    
  0.77031804E-01      1.1940755        -0.71041378        -0.70582769        -0.71030881        -0.71089971        -0.62400102        -0.64666733    
  0.83332834E-01      1.2115263        -0.71270342        -0.70828457        -0.71259691        -0.71324280        -0.62877245        -0.65151041    
  0.89633864E-01      1.2292320        -0.71497560        -0.71073610        -0.71486754        -0.71556227        -0.63361987        -0.65637934    
  0.95934894E-01      1.2471965        -0.71722990        -0.71318110        -0.71712026        -0.71785738        -0.63854457        -0.66127597    
  0.10223592          1.2654236        -0.71946586        -0.71561831        -0.71935462        -0.72012743        -0.64354787        -0.66620220    
  0.10853695          1.2839170        -0.72168304        -0.71804648        -0.72157019        -0.72237178        -0.64863111        -0.67116002    
  0.11483798          1.3026807        -0.72388100        -0.72046427        -0.72376650        -0.72458978        -0.65379564        -0.67615145    
  0.12113901          1.3217186        -0.72605928        -0.72287034        -0.72594312        -0.72678084        -0.65904279        -0.68117859    
  0.12744004          1.3410348        -0.72821744        -0.72526333        -0.72809958        -0.72894443        -0.66437394        -0.68624361    
  0.13374107          1.3606332        -0.73035501        -0.72764182        -0.73023544        -0.73108002        -0.66979045        -0.69134869    
  0.14004210          1.3805181        -0.73247154        -0.73000438        -0.73235023        -0.73318714        -0.67529372        -0.69649613    
  0.14634313          1.4006936        -0.73456657        -0.73234959        -0.73444349        -0.73526535        -0.68088513        -0.70168822    
  0.15264416          1.4211639        -0.73663963        -0.73467597        -0.73651475        -0.73731425        -0.68656608        -0.70692734    
  0.15894519          1.4419334        -0.73869025        -0.73698205        -0.73856356        -0.73933348        -0.69233799        -0.71221591    
  0.16524622          1.4630064        -0.74071798        -0.73926636        -0.74058944        -0.74132272        -0.69820229        -0.71755638    
  0.17154725          1.4843874        -0.74272233        -0.74152741        -0.74259192        -0.74328168        -0.70416040        -0.72295127    
  0.17784828          1.5060808        -0.74470284        -0.74376371        -0.74457053        -0.74521011        -0.71021377        -0.72840313    
  0.18414931          1.5280913        -0.74665903        -0.74597380        -0.74652479        -0.74710779        -0.71636386        -0.73391454    
  0.19045034          1.5504235        -0.74859043        -0.74815619        -0.74845424        -0.74897454        -0.72261213        -0.73948813    
  0.19675137          1.5730820        -0.75049656        -0.75030943        -0.75035838        -0.75081020        -0.72896005        -0.74512657    
  0.20305240          1.5960717        -0.75237693        -0.75243206        -0.75223674        -0.75261466        -0.73540912        -0.75083255    
  0.20935343          1.6193974        -0.75423108        -0.75452267        -0.75408885        -0.75438783        -0.74196082        -0.75660879    
  0.21565446          1.6430639        -0.75605852        -0.75657985        -0.75591421        -0.75612963        -0.74861667        -0.76245806    
  0.22195549          1.6670764        -0.75785876        -0.75860223        -0.75771235        -0.75784003        -0.75537818        -0.76838315    
  0.22825652          1.6914397        -0.75963133        -0.76058845        -0.75948279        -0.75951900        -0.76224688        -0.77438685    
  0.23455755          1.7161591        -0.76137574        -0.76253720        -0.76122504        -0.76116656        -0.76922431        -0.78047201    
  0.24085858          1.7412398        -0.76309152        -0.76444722        -0.76293862        -0.76278271        -0.77631203        -0.78664148    
  0.24715961          1.7666870        -0.76477817        -0.76631726        -0.76462305        -0.76436750        -0.78351159        -0.79289814    
  0.25346064          1.7925061        -0.76643521        -0.76814613        -0.76627783        -0.76592096        -0.79082457        -0.79924489    
  0.25976167          1.8187025        -0.76806217        -0.76993268        -0.76790250        -0.76744317        -0.79825256        -0.80568463    
  0.26606270          1.8452818        -0.76965856        -0.77167583        -0.76949657        -0.76893417        -0.80579714        -0.81222029    
  0.27236373          1.8722495        -0.77122391        -0.77337451        -0.77105955        -0.77039404        -0.81345994        -0.81885482    
  0.27866476          1.8996114        -0.77275772        -0.77502776        -0.77259097        -0.77182286        -0.82124257        -0.82559117    
  0.28496579          1.9273731        -0.77425952        -0.77663462        -0.77409035        -0.77322069        -0.82914667        -0.83243230    
  0.29126682          1.9555405        -0.77572885        -0.77819424        -0.77555721        -0.77458760        -0.83717389        -0.83938119    
  0.29756785          1.9841196        -0.77716521        -0.77970578        -0.77699108        -0.77592366        -0.84532588        -0.84644082    
  0.30386888          2.0131164        -0.77856815        -0.78116849        -0.77839148        -0.77722891        -0.85360432        -0.85361419    
  0.31016991          2.0425369        -0.77993719        -0.78258170        -0.77975794        -0.77850340        -0.86201090        -0.86090430    
  0.31647094          2.0723874        -0.78127186        -0.78394476        -0.78109001        -0.77974716        -0.87054730        -0.86831414    
  0.32277197          2.1026741        -0.78257170        -0.78525713        -0.78238720        -0.78096020        -0.87921526        -0.87584673    
  0.32907300          2.1334035        -0.78383625        -0.78651830        -0.78364907        -0.78214252        -0.88801650        -0.88350509    
  0.33537403          2.1645820        -0.78506506        -0.78772785        -0.78487515        -0.78329409        -0.89695275        -0.89129222    
  0.34167506          2.1962161        -0.78625766        -0.78888540        -0.78606499        -0.78441486        -0.90602579        -0.89921116    
  0.34797609          2.2283125        -0.78741362        -0.78999068        -0.78721815        -0.78550477        -0.91523737        -0.90726493    
  0.35427712          2.2608780        -0.78853250        -0.79104343        -0.78833418        -0.78656372        -0.92458929        -0.91545655    
  0.36057815          2.2939194        -0.78961384        -0.79204351        -0.78941264        -0.78759158        -0.93408336        -0.92378905    
  0.36687918          2.3274437        -0.79065723        -0.79299079        -0.79045310        -0.78858820        -0.94372138        -0.93226546    
  0.37318021          2.3614579        -0.79166223        -0.79388525        -0.79145513        -0.78955341        -0.95350520        -0.94088881    
  0.37948124          2.3959693        -0.79262843        -0.79472691        -0.79241832        -0.79048699        -0.96343667        -0.94966215    
  0.38578227          2.4309850        -0.79355541        -0.79551583        -0.79334224        -0.79138869        -0.97351767        -0.95858848    
  0.39208330          2.4665124        -0.79444277        -0.79625218        -0.79422649        -0.79225824        -0.98375006        -0.96767087    
  0.39838433          2.5025591        -0.79529010        -0.79693613        -0.79507068        -0.79309534        -0.99413577        -0.97691233    
  0.40468536          2.5391325        -0.79609702        -0.79756794        -0.79587441        -0.79389964         -1.0046767        -0.98631592    
  0.41098639          2.5762404        -0.79686315        -0.79814790        -0.79663730        -0.79467078         -1.0153748        -0.99588465    
  0.41728742          2.6138907        -0.79758811        -0.79867638        -0.79735897        -0.79540835         -1.0262321         -1.0056216    
  0.42358845          2.6520912        -0.79827154        -0.79915376        -0.79803907        -0.79611191         -1.0372504         -1.0155298    
  0.42988948          2.6908500        -0.79891308        -0.79958048        -0.79867723        -0.79678101         -1.0484319         -1.0256122    
  0.43619051          2.7301752        -0.79951239        -0.79995702        -0.79927312        -0.79741514         -1.0597785         -1.0358720    
  0.44249154          2.7700751        -0.80006915        -0.80028391        -0.79982639        -0.79801378         -1.0712923         -1.0463122    
  0.44879257          2.8105581        -0.80058302        -0.80056168        -0.80033673        -0.79857639         -1.0829753         -1.0569358    
  0.45509360          2.8516328        -0.80105370        -0.80079092        -0.80080383        -0.79910239         -1.0948296         -1.0677459    
  0.46139463          2.8933078        -0.80148088        -0.80097225        -0.80122738        -0.79959119         -1.1068573         -1.0787455    
  0.46769566          2.9355918        -0.80186430        -0.80110630        -0.80160711        -0.80004216         -1.1190605         -1.0899378    
  0.47399669          2.9784938        -0.80220366        -0.80119372        -0.80194274        -0.80045466         -1.1314415         -1.1013257    
  0.48029772          3.0220227        -0.80249872        -0.80123520        -0.80223400        -0.80082805         -1.1440022         -1.1129124    
  0.48659875          3.0661878        -0.80274924        -0.80123141        -0.80248067        -0.80116165         -1.1567450         -1.1247009    
  0.49289978          3.1109984        -0.80295498        -0.80118307        -0.80268251        -0.80145479         -1.1696721         -1.1366944    
  0.49920081          3.1564638        -0.80311573        -0.80109087        -0.80283930        -0.80170677         -1.1827856         -1.1488958    
  0.50550184          3.2025937        -0.80323130        -0.80095555        -0.80295085        -0.80191691         -1.1960879         -1.1613084    
  0.51180287          3.2493977        -0.80330151        -0.80077780        -0.80301698        -0.80208450         -1.2095812         -1.1739352    
  0.51810390          3.2968858        -0.80332618        -0.80055836        -0.80303752        -0.80220886         -1.2232679         -1.1867794    
  0.52440493          3.3450679        -0.80330518        -0.80029794        -0.80301233        -0.80228928         -1.2371503         -1.1998440    
