   LOG10(FN) FN  Arguments: Y11, Y12 ... Y21, Y22 ... [deg]
 -0.30103000         0.50000000          90.000000          0.0000000          0.0000000          0.0000000          90.000000          0.0000000          0.0000000          0.0000000          90.000000    
 -0.29472897         0.50730721          90.000000          0.0000000          0.0000000          0.0000000          90.000000          0.0000000          0.0000000          0.0000000          90.000000    
 -0.28842794         0.51472121          90.000000          0.0000000          0.0000000          0.0000000          90.000000          0.0000000          0.0000000          0.0000000          90.000000    
 -0.28212691         0.52224356          90.000000          0.0000000          0.0000000          0.0000000          90.000000          0.0000000          0.0000000          0.0000000          90.000000    
 -0.27582588         0.52987585          90.000000          0.0000000          0.0000000          0.0000000          90.000000          0.0000000          0.0000000          0.0000000          90.000000    
 -0.26952485         0.53761968          90.000000          0.0000000          0.0000000          0.0000000          90.000000          0.0000000          0.0000000          0.0000000          90.000000    
 -0.26322382         0.54547667          90.000000          0.0000000          0.0000000          0.0000000          90.000000          0.0000000          0.0000000          0.0000000          90.000000    
 -0.25692279         0.55344850          90.000000          0.0000000          0.0000000          0.0000000          90.000000          0.0000000          0.0000000          0.0000000          90.000000    
 -0.25062176         0.56153683          90.000000          0.0000000          0.0000000          0.0000000          90.000000          0.0000000          0.0000000          0.0000000          90.000000    
 -0.24432073         0.56974336          90.000000          0.0000000          0.0000000          0.0000000          90.000000          0.0000000          0.0000000          0.0000000          90.000000    
 -0.23801970         0.57806983          90.000000          0.0000000          0.0000000          0.0000000          90.000000          0.0000000          0.0000000          0.0000000          90.000000    
 -0.23171867         0.58651799          90.000000          0.0000000          0.0000000          0.0000000          90.000000          0.0000000          0.0000000          0.0000000          90.000000    
 -0.22541764         0.59508961          90.000000          0.0000000          0.0000000          0.0000000          90.000000          0.0000000          0.0000000          0.0000000          90.000000    
 -0.21911661         0.60378649          90.000000          0.0000000          0.0000000          0.0000000          90.000000          0.0000000          0.0000000          0.0000000          90.000000    
 -0.21281558         0.61261048          90.000000          0.0000000          0.0000000          0.0000000          90.000000          0.0000000          0.0000000          0.0000000          90.000000    
 -0.20651455         0.62156343          90.000000          0.0000000          0.0000000          0.0000000          90.000000          0.0000000          0.0000000          0.0000000          90.000000    
 -0.20021352         0.63064722          90.000000          0.0000000          0.0000000          0.0000000          90.000000          0.0000000          0.0000000          0.0000000          90.000000    
 -0.19391249         0.63986376          90.000000          0.0000000          0.0000000          0.0000000          90.000000          0.0000000          0.0000000          0.0000000          90.000000    
 -0.18761146         0.64921500          90.000000          0.0000000          0.0000000          0.0000000          90.000000          0.0000000          0.0000000          0.0000000          90.000000    
 -0.18131043         0.65870290          90.000000          0.0000000          0.0000000          0.0000000          90.000000          0.0000000          0.0000000          0.0000000          90.000000    
 -0.17500940         0.66832946          90.000000          0.0000000          0.0000000          0.0000000          90.000000          0.0000000          0.0000000          0.0000000          90.000000    
 -0.16870837         0.67809671          90.000000          0.0000000          0.0000000          0.0000000          90.000000          0.0000000          0.0000000          0.0000000          90.000000    
 -0.16240734         0.68800669          90.000000          0.0000000          0.0000000          0.0000000          90.000000          0.0000000          0.0000000          0.0000000          90.000000    
 -0.15610631         0.69806151          90.000000          0.0000000          0.0000000          0.0000000          90.000000          0.0000000          0.0000000          0.0000000          90.000000    
 -0.14980528         0.70826328          90.000000          0.0000000          0.0000000          0.0000000          90.000000          0.0000000          0.0000000          0.0000000          90.000000    
 -0.14350425         0.71861413          90.000000          0.0000000          0.0000000          0.0000000          90.000000          0.0000000          0.0000000          0.0000000          90.000000    
 -0.13720322         0.72911626          90.000000          0.0000000          0.0000000          0.0000000          90.000000          0.0000000          0.0000000          0.0000000          90.000000    
 -0.13090219         0.73977187          90.000000          0.0000000          0.0000000          0.0000000          90.000000          0.0000000          0.0000000          0.0000000          90.000000    
 -0.12460116         0.75058321          90.000000          0.0000000          0.0000000          0.0000000          90.000000          0.0000000          0.0000000          0.0000000          90.000000    
 -0.11830013         0.76155255          90.000000          0.0000000          0.0000000          0.0000000          90.000000          0.0000000          0.0000000          0.0000000          90.000000    
 -0.11199910         0.77268219          90.000000          0.0000000          0.0000000          0.0000000          90.000000          0.0000000          0.0000000          0.0000000          90.000000    
 -0.10569807         0.78397450          90.000000          0.0000000          0.0000000          0.0000000          90.000000          0.0000000          0.0000000          0.0000000          90.000000    
 -0.99397036E-01     0.79543183          90.000000          0.0000000          0.0000000          0.0000000          90.000000          0.0000000          0.0000000          0.0000000          90.000000    
 -0.93096006E-01     0.80705660          90.000000          0.0000000          0.0000000          0.0000000          90.000000          0.0000000          0.0000000          0.0000000          90.000000    
 -0.86794976E-01     0.81885126          90.000000          0.0000000          0.0000000          0.0000000          90.000000          0.0000000          0.0000000          0.0000000          90.000000    
 -0.80493946E-01     0.83081830          90.000000          0.0000000          0.0000000          0.0000000          90.000000          0.0000000          0.0000000          0.0000000          90.000000    
 -0.74192916E-01     0.84296023          90.000000          0.0000000          0.0000000          0.0000000          90.000000          0.0000000          0.0000000          0.0000000          90.000000    
 -0.67891886E-01     0.85527960          90.000000          0.0000000          0.0000000          0.0000000          90.000000          0.0000000          0.0000000          0.0000000          90.000000    
 -0.61590856E-01     0.86777902          90.000000          0.0000000          0.0000000          0.0000000          90.000000          0.0000000          0.0000000          0.0000000          90.000000    
 -0.55289826E-01     0.88046110          90.000000          0.0000000          0.0000000          0.0000000          90.000000          0.0000000          0.0000000          0.0000000          90.000000    
 -0.48988796E-01     0.89332853          90.000000          0.0000000          0.0000000          0.0000000          90.000000          0.0000000          0.0000000          0.0000000          90.000000    
 -0.42687766E-01     0.90638401          90.000000          0.0000000          0.0000000          0.0000000          90.000000          0.0000000          0.0000000          0.0000000          90.000000    
 -0.36386736E-01     0.91963028          90.000000          0.0000000          0.0000000          0.0000000          90.000000          0.0000000          0.0000000          0.0000000          90.000000    
 -0.30085706E-01     0.93307015          90.000000          0.0000000          0.0000000          0.0000000          90.000000          0.0000000          0.0000000          0.0000000          90.000000    
 -0.23784676E-01     0.94670642          90.000000          0.0000000          0.0000000          0.0000000          90.000000          0.0000000          0.0000000          0.0000000          90.000000    
 -0.17483646E-01     0.96054199          90.000000          0.0000000          0.0000000          0.0000000          90.000000          0.0000000          0.0000000          0.0000000          90.000000    
 -0.11182616E-01     0.97457975          90.000000          0.0000000          0.0000000          0.0000000          90.000000          0.0000000          0.0000000          0.0000000          90.000000    
 -0.48815859E-02     0.98882267          90.000000          0.0000000          0.0000000          0.0000000          90.000000          0.0000000          0.0000000          0.0000000          90.000000    
  0.14194441E-02      1.0032737          90.000000          0.0000000          0.0000000          0.0000000          90.000000          0.0000000          0.0000000          0.0000000          90.000000    
  0.77204741E-02      1.0179360          90.000000          0.0000000          0.0000000          0.0000000          90.000000          0.0000000          0.0000000          0.0000000          90.000000    
  0.14021504E-01      1.0328125          90.000000          0.0000000          0.0000000          0.0000000          90.000000          0.0000000          0.0000000          0.0000000          90.000000    
  0.20322534E-01      1.0479065          90.000000          0.0000000          0.0000000          0.0000000          90.000000          0.0000000          0.0000000          0.0000000          90.000000    
  0.26623564E-01      1.0632210          90.000000          0.0000000          0.0000000          0.0000000          90.000000          0.0000000          0.0000000          0.0000000          90.000000    
  0.32924594E-01      1.0787594          90.000000          0.0000000          0.0000000          0.0000000          90.000000          0.0000000          0.0000000          0.0000000          90.000000    
  0.39225624E-01      1.0945248          90.000000          0.0000000          0.0000000          0.0000000          90.000000          0.0000000          0.0000000          0.0000000          90.000000    
  0.45526654E-01      1.1105207          90.000000          0.0000000          0.0000000          0.0000000          90.000000          0.0000000          0.0000000          0.0000000          90.000000    
  0.51827684E-01      1.1267503          90.000000          0.0000000          0.0000000          0.0000000          90.000000          0.0000000          0.0000000          0.0000000          90.000000    
  0.58128714E-01      1.1432171          90.000000          0.0000000          0.0000000          0.0000000          90.000000          0.0000000          0.0000000          0.0000000          90.000000    
  0.64429744E-01      1.1599246          90.000000          0.0000000          0.0000000          0.0000000          90.000000          0.0000000          0.0000000          0.0000000          90.000000    
  0.70730774E-01      1.1768762          90.000000          0.0000000          0.0000000          0.0000000          90.000000          0.0000000          0.0000000          0.0000000          90.000000    
  0.77031804E-01      1.1940755          90.000000          0.0000000          0.0000000          0.0000000          90.000000          0.0000000          0.0000000          0.0000000          90.000000    
  0.83332834E-01      1.2115263          90.000000          0.0000000          0.0000000          0.0000000          90.000000          0.0000000          0.0000000          0.0000000          90.000000    
  0.89633864E-01      1.2292320          90.000000          0.0000000          0.0000000          0.0000000          90.000000          0.0000000          0.0000000          0.0000000          90.000000    
  0.95934894E-01      1.2471965          90.000000          0.0000000          0.0000000          0.0000000          90.000000          0.0000000          0.0000000          0.0000000          90.000000    
  0.10223592          1.2654236          90.000000          0.0000000          0.0000000          0.0000000          90.000000          0.0000000          0.0000000          0.0000000          90.000000    
  0.10853695          1.2839170          90.000000          0.0000000          0.0000000          0.0000000          90.000000          0.0000000          0.0000000          0.0000000          90.000000    
  0.11483798          1.3026807          90.000000          0.0000000          0.0000000          0.0000000          90.000000          0.0000000          0.0000000          0.0000000          90.000000    
  0.12113901          1.3217186          90.000000          0.0000000          0.0000000          0.0000000          90.000000          0.0000000          0.0000000          0.0000000          90.000000    
  0.12744004          1.3410348          90.000000          0.0000000          0.0000000          0.0000000          90.000000          0.0000000          0.0000000          0.0000000          90.000000    
  0.13374107          1.3606332          90.000000          0.0000000          0.0000000          0.0000000          90.000000          0.0000000          0.0000000          0.0000000          90.000000    
  0.14004210          1.3805181          90.000000          0.0000000          0.0000000          0.0000000          90.000000          0.0000000          0.0000000          0.0000000          90.000000    
  0.14634313          1.4006936          90.000000          0.0000000          0.0000000          0.0000000          90.000000          0.0000000          0.0000000          0.0000000          90.000000    
  0.15264416          1.4211639          90.000000          0.0000000          0.0000000          0.0000000          90.000000          0.0000000          0.0000000          0.0000000          90.000000    
  0.15894519          1.4419334          90.000000          0.0000000          0.0000000          0.0000000          90.000000          0.0000000          0.0000000          0.0000000          90.000000    
  0.16524622          1.4630064          90.000000          0.0000000          0.0000000          0.0000000          90.000000          0.0000000          0.0000000          0.0000000          90.000000    
  0.17154725          1.4843874          90.000000          0.0000000          0.0000000          0.0000000          90.000000          0.0000000          0.0000000          0.0000000          90.000000    
  0.17784828          1.5060808          90.000000          0.0000000          0.0000000          0.0000000          90.000000          0.0000000          0.0000000          0.0000000          90.000000    
  0.18414931          1.5280913          90.000000          0.0000000          0.0000000          0.0000000          90.000000          0.0000000          0.0000000          0.0000000          90.000000    
  0.19045034          1.5504235          90.000000          0.0000000          0.0000000          0.0000000          90.000000          0.0000000          0.0000000          0.0000000          90.000000    
  0.19675137          1.5730820          90.000000          0.0000000          0.0000000          0.0000000          90.000000          0.0000000          0.0000000          0.0000000          90.000000    
  0.20305240          1.5960717          90.000000          0.0000000          0.0000000          0.0000000          90.000000          0.0000000          0.0000000          0.0000000          90.000000    
  0.20935343          1.6193974          90.000000          0.0000000          0.0000000          0.0000000          90.000000          0.0000000          0.0000000          0.0000000          90.000000    
  0.21565446          1.6430639          90.000000          0.0000000          0.0000000          0.0000000          90.000000          0.0000000          0.0000000          0.0000000          90.000000    
  0.22195549          1.6670764          90.000000          0.0000000          0.0000000          0.0000000          90.000000          0.0000000          0.0000000          0.0000000          90.000000    
  0.22825652          1.6914397          90.000000          0.0000000          0.0000000          0.0000000          90.000000          0.0000000          0.0000000          0.0000000          90.000000    
  0.23455755          1.7161591          90.000000          0.0000000          0.0000000          0.0000000          90.000000          0.0000000          0.0000000          0.0000000          90.000000    
  0.24085858          1.7412398          90.000000          0.0000000          0.0000000          0.0000000          90.000000          0.0000000          0.0000000          0.0000000          90.000000    
  0.24715961          1.7666870          90.000000          0.0000000          0.0000000          0.0000000          90.000000          0.0000000          0.0000000          0.0000000          90.000000    
  0.25346064          1.7925061          90.000000          0.0000000          0.0000000          0.0000000          90.000000          0.0000000          0.0000000          0.0000000          90.000000    
  0.25976167          1.8187025          90.000000          0.0000000          0.0000000          0.0000000          90.000000          0.0000000          0.0000000          0.0000000          90.000000    
  0.26606270          1.8452818          90.000000          0.0000000          0.0000000          0.0000000          90.000000          0.0000000          0.0000000          0.0000000          90.000000    
  0.27236373          1.8722495          90.000000          0.0000000          0.0000000          0.0000000          90.000000          0.0000000          0.0000000          0.0000000          90.000000    
  0.27866476          1.8996114          90.000000          0.0000000          0.0000000          0.0000000          90.000000          0.0000000          0.0000000          0.0000000          90.000000    
  0.28496579          1.9273731          90.000000          0.0000000          0.0000000          0.0000000          90.000000          0.0000000          0.0000000          0.0000000          90.000000    
  0.29126682          1.9555405          90.000000          0.0000000          0.0000000          0.0000000          90.000000          0.0000000          0.0000000          0.0000000          90.000000    
  0.29756785          1.9841196          90.000000          0.0000000          0.0000000          0.0000000          90.000000          0.0000000          0.0000000          0.0000000          90.000000    
