   LOG10(FN) FN  Arguments: Lamda11, Lamda22 ... [deg]
 -0.30103000         0.50000000          117.02721    
 -0.29472897         0.50730721          117.34173    
 -0.28842794         0.51472121          117.65857    
 -0.28212691         0.52224356          117.97768    
 -0.27582588         0.52987585          118.29906    
 -0.26952485         0.53761968          118.62266    
 -0.26322382         0.54547667          118.94846    
 -0.25692279         0.55344850          119.27643    
 -0.25062176         0.56153683          119.60654    
 -0.24432073         0.56974336          119.93874    
 -0.23801970         0.57806983          120.27301    
 -0.23171867         0.58651799          120.60931    
 -0.22541764         0.59508961          120.94761    
 -0.21911661         0.60378649          121.28785    
 -0.21281558         0.61261048          121.63000    
 -0.20651455         0.62156343          121.97403    
 -0.20021352         0.63064722          122.31987    
 -0.19391249         0.63986376          122.66750    
 -0.18761146         0.64921500          123.01686    
 -0.18131043         0.65870290          123.36791    
 -0.17500940         0.66832946          123.72059    
 -0.16870837         0.67809671          124.07486    
 -0.16240734         0.68800669          124.43066    
 -0.15610631         0.69806151          124.78795    
 -0.14980528         0.70826328          125.14666    
 -0.14350425         0.71861413          125.50675    
 -0.13720322         0.72911626          125.86815    
 -0.13090219         0.73977187          126.23081    
 -0.12460116         0.75058321          126.59468    
 -0.11830013         0.76155255          126.95968    
 -0.11199910         0.77268219          127.32577    
 -0.10569807         0.78397450          127.69287    
 -0.99397036E-01     0.79543183          128.06094    
 -0.93096006E-01     0.80705660          128.42990    
 -0.86794976E-01     0.81885126          128.79968    
 -0.80493946E-01     0.83081830          129.17024    
 -0.74192916E-01     0.84296023          129.54149    
 -0.67891886E-01     0.85527960          129.91338    
 -0.61590856E-01     0.86777902          130.28584    
 -0.55289826E-01     0.88046110          130.65880    
 -0.48988796E-01     0.89332853          131.03220    
 -0.42687766E-01     0.90638401          131.40596    
 -0.36386736E-01     0.91963028          131.78002    
 -0.30085706E-01     0.93307015          132.15431    
 -0.23784676E-01     0.94670642          132.52876    
 -0.17483646E-01     0.96054199          132.90330    
 -0.11182616E-01     0.97457975          133.27787    
 -0.48815859E-02     0.98882267          133.65239    
  0.14194441E-02      1.0032737          134.02680    
  0.77204741E-02      1.0179360          134.40103    
  0.14021504E-01      1.0328125          134.77500    
  0.20322534E-01      1.0479065          135.14865    
  0.26623564E-01      1.0632210          135.52192    
  0.32924594E-01      1.0787594          135.89473    
  0.39225624E-01      1.0945248          136.26702    
  0.45526654E-01      1.1105207          136.63871    
  0.51827684E-01      1.1267503          137.00975    
  0.58128714E-01      1.1432171          137.38007    
  0.64429744E-01      1.1599246          137.74960    
  0.70730774E-01      1.1768762          138.11828    
  0.77031804E-01      1.1940755          138.48605    
  0.83332834E-01      1.2115263          138.85283    
  0.89633864E-01      1.2292320          139.21858    
  0.95934894E-01      1.2471965          139.58322    
  0.10223592          1.2654236          139.94670    
  0.10853695          1.2839170          140.30896    
  0.11483798          1.3026807          140.66994    
  0.12113901          1.3217186          141.02959    
  0.12744004          1.3410348          141.38784    
  0.13374107          1.3606332          141.74464    
  0.14004210          1.3805181          142.09994    
  0.14634313          1.4006936          142.45369    
  0.15264416          1.4211639          142.80583    
  0.15894519          1.4419334          143.15631    
  0.16524622          1.4630064          143.50509    
  0.17154725          1.4843874          143.85212    
  0.17784828          1.5060808          144.19735    
  0.18414931          1.5280913          144.54074    
  0.19045034          1.5504235          144.88223    
  0.19675137          1.5730820          145.22180    
  0.20305240          1.5960717          145.55940    
  0.20935343          1.6193974          145.89499    
  0.21565446          1.6430639          146.22853    
  0.22195549          1.6670764          146.55999    
  0.22825652          1.6914397          146.88933    
  0.23455755          1.7161591          147.21652    
  0.24085858          1.7412398          147.54152    
  0.24715961          1.7666870          147.86430    
  0.25346064          1.7925061          148.18484    
  0.25976167          1.8187025          148.50311    
  0.26606270          1.8452818          148.81907    
  0.27236373          1.8722495          149.13271    
  0.27866476          1.8996114          149.44400    
  0.28496579          1.9273731          149.75292    
  0.29126682          1.9555405          150.05945    
  0.29756785          1.9841196          150.36356    
  0.30386888          2.0131164          150.66524    
  0.31016991          2.0425369          150.96447    
  0.31647094          2.0723874          151.26124    
  0.32277197          2.1026741          151.55552    
  0.32907300          2.1334035          151.84732    
  0.33537403          2.1645820          152.13660    
  0.34167506          2.1962161          152.42337    
  0.34797609          2.2283125          152.70762    
  0.35427712          2.2608780          152.98933    
  0.36057815          2.2939194          153.26849    
  0.36687918          2.3274437          153.54511    
  0.37318021          2.3614579          153.81917    
  0.37948124          2.3959693          154.09067    
  0.38578227          2.4309850          154.35962    
  0.39208330          2.4665124          154.62599    
  0.39838433          2.5025591          154.88980    
  0.40468536          2.5391325          155.15105    
  0.41098639          2.5762404          155.40972    
  0.41728742          2.6138907          155.66584    
  0.42358845          2.6520912          155.91939    
  0.42988948          2.6908500          156.17039    
  0.43619051          2.7301752          156.41882    
  0.44249154          2.7700751          156.66471    
  0.44879257          2.8105581          156.90806    
  0.45509360          2.8516328          157.14887    
  0.46139463          2.8933078          157.38714    
  0.46769566          2.9355918          157.62290    
  0.47399669          2.9784938          157.85614    
  0.48029772          3.0220227          158.08687    
  0.48659875          3.0661878          158.31511    
  0.49289978          3.1109984          158.54086    
  0.49920081          3.1564638          158.76413    
  0.50550184          3.2025937          158.98495    
  0.51180287          3.2493977          159.20331    
  0.51810390          3.2968858          159.41923    
  0.52440493          3.3450679          159.63272    
  0.53070596          3.3939541          159.84381    
  0.53700699          3.4435548          160.05249    
  0.54330802          3.4938803          160.25879    
  0.54960905          3.5449413          160.46271    
  0.55591008          3.5967486          160.66428    
  0.56221111          3.6493130          160.86351    
  0.56851214          3.7026456          161.06042    
  0.57481317          3.7567576          161.25501    
  0.58111420          3.8116604          161.44731    
  0.58741523          3.8673656          161.63734    
  0.59371626          3.9238849          161.82511    
  0.60001729          3.9812302          162.01063    
  0.60631832          4.0394136          162.19393    
  0.61261935          4.0984473          162.37501    
  0.61892038          4.1583437          162.55391    
  0.62522141          4.2191155          162.73064    
  0.63152244          4.2807754          162.90521    
  0.63782347          4.3433365          163.07764    
  0.64412450          4.4068118          163.24795    
  0.65042553          4.4712148          163.41616    
  0.65672656          4.5365590          163.58229    
  0.66302759          4.6028582          163.74636    
  0.66932862          4.6701263          163.90837    
  0.67562965          4.7383775          164.06837    
  0.68193068          4.8076261          164.22635    
  0.68823171          4.8778868          164.38235    
  0.69453274          4.9491742          164.53637    
  0.70083377          5.0215035          164.68844    
  0.70713480          5.0948899          164.83858    
  0.71343583          5.1693488          164.98681    
  0.71973686          5.2448958          165.13314    
  0.72603789          5.3215469          165.27759    
  0.73233892          5.3993182          165.42019    
  0.73863995          5.4782261          165.56094    
  0.74494098          5.5582872          165.69988    
  0.75124201          5.6395183          165.83701    
  0.75754304          5.7219366          165.97236    
  0.76384407          5.8055594          166.10595    
  0.77014510          5.8904043          166.23779    
  0.77644613          5.9764891          166.36790    
  0.78274716          6.0638320          166.49631    
  0.78904819          6.1524514          166.62302    
  0.79534922          6.2423659          166.74806    
  0.80165025          6.3335945          166.87145    
  0.80795128          6.4261563          166.99320    
  0.81425231          6.5200708          167.11333    
  0.82055334          6.6153579          167.23186    
  0.82685437          6.7120375          167.34881    
  0.83315540          6.8101300          167.46419    
  0.83945643          6.9096561          167.57802    
  0.84575746          7.0106367          167.69033    
  0.85205849          7.1130931          167.80112    
  0.85835952          7.2170468          167.91042    
  0.86466055          7.3225198          168.01824    
  0.87096158          7.4295342          168.12459    
  0.87726261          7.5381125          168.22951    
  0.88356364          7.6482776          168.33299    
  0.88986467          7.7600528          168.43506    
  0.89616570          7.8734614          168.53574    
  0.90246673          7.9885275          168.63504    
  0.90876776          8.1052752          168.73297    
  0.91506879          8.2237291          168.82956    
  0.92136982          8.3439141          168.92482    
  0.92767085          8.4658555          169.01876    
  0.93397188          8.5895791          169.11141    
  0.94027291          8.7151108          169.20277    
  0.94657394          8.8424771          169.29286    
  0.95287497          8.9717048          169.38169    
  0.95917600          9.1028210          169.46929    
  0.96547703          9.2358535          169.55567    
  0.97177806          9.3708301          169.64083    
  0.97807909          9.5077793          169.72480    
  0.98438012          9.6467300          169.80759    
  0.99068115          9.7877114          169.88922    
  0.99698218          9.9307531          169.96969    
   1.0032832          10.075885          170.04903    
   1.0095842          10.223138          170.12724    
   1.0158853          10.372544          170.20434    
   1.0221863          10.524132          170.28035    
   1.0284873          10.677936          170.35527    
   1.0347884          10.833988          170.42912    
   1.0410894          10.992321          170.50192    
   1.0473904          11.152967          170.57367    
   1.0536915          11.315961          170.64439    
   1.0599925          11.481337          170.71409    
   1.0662935          11.649131          170.78279    
   1.0725945          11.819376          170.85049    
   1.0788956          11.992109          170.91722    
   1.0851966          12.167367          170.98297    
   1.0914976          12.345186          171.04777    
   1.0977987          12.525604          171.11162    
   1.1040997          12.708658          171.17453    
   1.1104007          12.894388          171.23653    
   1.1167018          13.082832          171.29762    
   1.1230028          13.274030          171.35780    
   1.1293038          13.468022          171.41710    
   1.1356048          13.664849          171.47552    
   1.1419059          13.864553          171.53307    
   1.1482069          14.067175          171.58977    
   1.1545079          14.272759          171.64563    
   1.1608090          14.481347          171.70065    
   1.1671100          14.692984          171.75484    
   1.1734110          14.907713          171.80822    
   1.1797121          15.125581          171.86080    
   1.1860131          15.346632          171.91259    
   1.1923141          15.570914          171.96359    
   1.1986151          15.798474          172.01381    
   1.2049162          16.029360          172.06327    
   1.2112172          16.263619          172.11198    
   1.2175182          16.501303          172.15994    
   1.2238193          16.742460          172.20716    
   1.2301203          16.987141          172.25366    
   1.2364213          17.235398          172.29944    
   1.2427224          17.487284          172.34451    
   1.2490234          17.742850          172.38888    
   1.2553244          18.002152          172.43255    
   1.2616254          18.265243          172.47555    
   1.2679265          18.532178          172.51787    
   1.2742275          18.803015          172.55952    
   1.2805285          19.077811          172.60051    
   1.2868296          19.356622          172.64085    
   1.2931306          19.639508          172.68056    
   1.2994316          19.926528          172.71962    
   1.3057327          20.217742          172.75806    
   1.3120337          20.513213          172.79588    
   1.3183347          20.813001          172.83309    
   1.3246357          21.117171          172.86970    
   1.3309368          21.425787          172.90571    
   1.3372378          21.738912          172.94113    
   1.3435388          22.056614          172.97598    
   1.3498399          22.378958          173.01024    
   1.3561409          22.706014          173.04394    
   1.3624419          23.037849          173.07708    
   1.3687430          23.374534          173.10967    
   1.3750440          23.716139          173.14171    
   1.3813450          24.062736          173.17321    
   1.3876460          24.414399          173.20417    
   1.3939471          24.771202          173.23461    
   1.4002481          25.133218          173.26453    
   1.4065491          25.500526          173.29394    
   1.4128502          25.873201          173.32284    
   1.4191512          26.251323          173.35123    
   1.4254522          26.634971          173.37914    
   1.4317533          27.024225          173.40655    
   1.4380543          27.419169          173.43348    
   1.4443553          27.819884          173.45994    
   1.4506563          28.226455          173.48592    
   1.4569574          28.638969          173.51144    
   1.4632584          29.057510          173.53650    
   1.4695594          29.482169          173.56111    
   1.4758605          29.913034          173.58527    
   1.4821615          30.350196          173.60899    
   1.4884625          30.793746          173.63227    
   1.4947636          31.243779          173.65512    
   1.5010646          31.700388          173.67755    
   1.5073656          32.163671          173.69955    
   1.5136666          32.633725          173.72114    
   1.5199677          33.110647          173.74232    
   1.5262687          33.594540          173.76310    
   1.5325697          34.085505          173.78348    
   1.5388708          34.583645          173.80346    
   1.5451718          35.089065          173.82306    
   1.5514728          35.601871          173.84227    
   1.5577739          36.122172          173.86111    
   1.5640749          36.650076          173.87957    
   1.5703759          37.185696          173.89766    
   1.5766769          37.729143          173.91539    
   1.5829780          38.280533          173.93276    
   1.5892790          38.839980          173.94978    
   1.5955800          39.407604          173.96645    
   1.6018811          39.983523          173.98277    
   1.6081821          40.567859          173.99876    
   1.6144831          41.160735          174.01441    
   1.6207842          41.762275          174.02973    
   1.6270852          42.372607          174.04473    
   1.6333862          42.991858          174.05941    
   1.6396872          43.620159          174.07378    
   1.6459883          44.257642          174.08783    
   1.6522893          44.904442          174.10158    
   1.6585903          45.560694          174.11502    
   1.6648914          46.226537          174.12818    
   1.6711924          46.902111          174.14103    
   1.6774934          47.587558          174.15361    
   1.6837945          48.283023          174.16590    
   1.6900955          48.988651          174.17791    
   1.6963965          49.704592          174.18965    
   1.7026975          50.430996          174.20112    
   1.7089986          51.168015          174.21233    
   1.7152996          51.915806          174.22328    
   1.7216006          52.674526          174.23397    
   1.7279017          53.444333          174.24441    
   1.7342027          54.225391          174.25461    
   1.7405037          55.017864          174.26457    
   1.7468048          55.821918          174.27429    
   1.7531058          56.637723          174.28378    
   1.7594068          57.465450          174.29304    
   1.7657078          58.305274          174.30208    
   1.7720089          59.157372          174.31091    
   1.7783099          60.021923          174.31952    
   1.7846109          60.899108          174.32792    
   1.7909120          61.789113          174.33612    
   1.7972130          62.692125          174.34411    
   1.8035140          63.608334          174.35192    
   1.8098151          64.537933          174.35953    
   1.8161161          65.481118          174.36695    
   1.8224171          66.438086          174.37420    
   1.8287181          67.409040          174.38126    
   1.8350192          68.394184          174.38816    
   1.8413202          69.393725          174.39488    
   1.8476212          70.407874          174.40145    
   1.8539223          71.436845          174.40785    
   1.8602233          72.480853          174.41410    
   1.8665243          73.540118          174.42020    
   1.8728254          74.614864          174.42615    
   1.8791264          75.705317          174.43196    
   1.8854274          76.811706          174.43763    
   1.8917284          77.934265          174.44316    
   1.8980295          79.073229          174.44857    
   1.9043305          80.228838          174.45385    
   1.9106315          81.401336          174.45901    
   1.9169326          82.590969          174.46406    
   1.9232336          83.797988          174.46899    
   1.9295346          85.022647          174.47381    
   1.9358357          86.265204          174.47852    
   1.9421367          87.525920          174.48314    
   1.9484377          88.805060          174.48765    
   1.9547387          90.102895          174.49207    
   1.9610398          91.419696          174.49640    
   1.9673408          92.755742          174.50064    
   1.9736418          94.111313          174.50480    
