     F(Hz)         |Z|(ohms)     PHASE(Z)(Deg) 
    0.10000000000000E-05     201.40963198233       -0.66903991459011E-06
     10.000000000000         197.63978834609        -9.1301484781907    
     20.000000000000         185.84299461294        -17.563114358831    
     30.000000000000         169.26099381260        -24.527354468852    
     40.000000000000         151.10498414947        -29.769653581866    
     50.000000000000         133.46719427585        -33.317682039399    
     60.000000000000         117.36099126523        -35.297967625987    
     70.000000000000         103.13741049903        -35.828066851754    
     80.000000000000         90.838963283058        -34.973665092147    
     90.000000000000         80.410013554667        -32.744680813966    
     100.00000000000         71.803214949249        -29.117992786540    
     110.00000000000         65.024751046447        -24.088457831885    
     120.00000000000         60.139379033908        -17.751357064161    
     130.00000000000         57.240688914212        -10.395742497640    
     140.00000000000         56.394409491472        -2.5424815167767    
     150.00000000000         57.583046038458         5.1462692220675    
     160.00000000000         60.691009261747         12.059676273330    
     170.00000000000         65.540492603578         17.794261507627    
     180.00000000000         71.946479814357         22.177786662883    
     190.00000000000         79.753704114310         25.195986681860    
     200.00000000000         88.841690623882         26.903268373480    
     210.00000000000         99.100561719209         27.361050427653    
     220.00000000000         110.38082539780         26.608552984331    
     230.00000000000         122.41568500520         24.658396328942    
     240.00000000000         134.71685307853         21.511936887268    
     250.00000000000         146.46681050207         17.193867613758    
     260.00000000000         156.48039380051         11.804183550560    
     270.00000000000         163.35962566400         5.5725867544942    
     280.00000000000         165.91531473306        -1.1200045702777    
     290.00000000000         163.69052712179        -7.7894852655070    
     300.00000000000         157.19638471524        -13.958238634156    
     310.00000000000         147.64804746360        -19.261764082178    
     320.00000000000         136.43898519403        -23.490925634867    
     330.00000000000         124.73586103826        -26.567384012782    
     340.00000000000         113.33821525627        -28.490584401820    
     350.00000000000         102.72104988813        -29.290233201033    
     360.00000000000         93.138994611407        -28.997394771775    
     370.00000000000         84.723130788179        -27.634370236468    
     380.00000000000         77.549473865658        -25.220519396465    
     390.00000000000         71.679471879284        -21.792053043937    
     400.00000000000         67.177516815835        -17.433070434625    
     410.00000000000         64.109725095409        -12.309435718443    
     420.00000000000         62.528752317026        -6.6877471350437    
     430.00000000000         62.453146258768       -0.91862326927038    
     440.00000000000         63.853200209420         4.6202492951797    
     450.00000000000         66.652063703078         9.5963049883568    
     460.00000000000         70.740565208995         13.771619044519    
     470.00000000000         75.995381055434         17.011203301700    
     480.00000000000         82.289735268894         19.260213604627    
     490.00000000000         89.491034955193         20.511525425776    
     500.00000000000         97.444609475457         20.779205011415    
     510.00000000000         105.94505103374         20.083833174912    
     520.00000000000         114.69875122350         18.450076954585    
     530.00000000000         123.28639644464         15.915127390721    
     540.00000000000         131.14410160590         12.545734712260    
     550.00000000000         137.59258732703         8.4591758465713    
     560.00000000000         141.94120750517         3.8392284315770    
     570.00000000000         143.65927268490        -1.0646653631398    
     580.00000000000         142.54712987667        -5.9624475359393    
     590.00000000000         138.80821424151        -10.566756211875    
     600.00000000000         132.97431834803        -14.635754141092    
     610.00000000000         125.73418127149        -17.997223272872    
     620.00000000000         117.76374029186        -20.548934957987    
     630.00000000000         109.62341015656        -22.243240941173    
     640.00000000000         101.72850522993        -23.067551336305    
     650.00000000000         94.365931917949        -23.028959421010    
     660.00000000000         87.728312888539        -22.146549399160    
     670.00000000000         81.947533825702        -20.451848972033    
     680.00000000000         77.119870927288        -17.996277895841    
     690.00000000000         73.320704121014        -14.863017488035    
     700.00000000000         70.609553915241        -11.178693931492    
     710.00000000000         69.027755335675        -7.1183058611294    
     720.00000000000         68.592456621300        -2.8972541919552    
     730.00000000000         69.291364174149         1.2507502662920    
     740.00000000000         71.081663118959         5.1033476282343    
     750.00000000000         73.893710776511         8.4754096998802    
     760.00000000000         77.637039260631         11.232351019091    
     770.00000000000         82.204842350087         13.289588060663    
     780.00000000000         87.473865690880         14.603104192492    
     790.00000000000         93.298440759456         15.157731910641    
     800.00000000000         99.499322797625         14.958030691861    
     810.00000000000         105.84991096876         14.024086442370    
     820.00000000000         112.06476852187         12.392571812139    
     830.00000000000         117.79810044759         10.122004973947    
     840.00000000000         122.66151399512         7.2998726524200    
     850.00000000000         126.26774894245         4.0480381059769    
     860.00000000000         128.29708641565        0.52231208545354    
     870.00000000000         128.56786163190        -3.0966211837845    
     880.00000000000         127.08223827774        -6.6201883019109    
     890.00000000000         124.02507664525        -9.8719804308090    
     900.00000000000         119.71654279582        -12.704305674710    
     910.00000000000         114.54131411704        -15.006718430089    
     920.00000000000         108.88278456457        -16.706147146049    
     930.00000000000         103.07987367184        -17.761536541749    
     940.00000000000         97.409043868756        -18.156892089131    
     950.00000000000         92.084725956177        -17.895772904077    
     960.00000000000         87.269144568808        -16.998810522101    
     970.00000000000         83.084447077361        -15.504476153768    
     980.00000000000         79.622944810480        -13.472216093779    
     990.00000000000         76.953683925253        -10.986143960070    
    1000.00000000000         75.125228671409        -8.1568241430706    
     1010.0000000000         74.165636915076        -5.1187327524220    
     1020.0000000000         74.081213387048        -2.0221995171375    
     1030.0000000000         74.855632745283        0.97912989286558    
     1040.0000000000         76.450377813291         3.7421223158498    
     1050.0000000000         78.806405404352         6.1454362065714    
     1060.0000000000         81.846068653477         8.0957210798427    
     1070.0000000000         85.474033616332         9.5285247182412    
     1080.0000000000         89.576299204345         10.405572638523    
     1090.0000000000         94.017240774017         10.710750717358    
     1100.0000000000         98.635599439032         10.446741156038    
     1110.0000000000         103.24138287568         9.6333953646775    
     1120.0000000000         107.61656742725         8.3080057328531    
     1130.0000000000         111.52290151398         6.5268327184583    
     1140.0000000000         114.71930440826         4.3666148762559    
     1150.0000000000         116.98866911191         1.9244663263053    
     1160.0000000000         118.16953630780       -0.68522233507545    
     1170.0000000000         118.18398278091        -3.3373721040740    
     1180.0000000000         117.05214045234        -5.9054336799955    
     1190.0000000000         114.88777935839        -8.2712135800581    
     1200.0000000000         111.87666476189        -10.333004244381    
     1210.0000000000         108.24560656967        -12.010484809201    
     1220.0000000000         104.23184053931        -13.246181596534    
     1230.0000000000         100.05967069512        -14.004404209177    
     1240.0000000000         95.926821099480        -14.269058440237    
     1250.0000000000         91.999327715108        -14.041594284470    
     1260.0000000000         88.412103218929        -13.339840618589    
     1270.0000000000         85.272216282527        -12.197866630304    
     1280.0000000000         82.662664691141        -10.666449506418    
     1290.0000000000         80.645367995680        -8.8133136292402    
     1300.0000000000         79.262941684495        -6.7221432156928    
     1310.0000000000         78.539421199531        -4.4895719972982    
     1320.0000000000         78.480434375858        -2.2199471780858    
     1330.0000000000         79.073359879876       -0.18476572701136E-01
     1340.0000000000         80.287798430899         2.0159721632034    
     1350.0000000000         82.076351128027         3.7969965048093    
     1360.0000000000         84.375422489504         5.2547180564383    
     1370.0000000000         87.105687992612         6.3375500284251    
     1380.0000000000         90.172031094275         7.0121463581354    
     1390.0000000000         93.463109388266         7.2623640676972    
     1400.0000000000         96.851154174474         7.0880482974033    
     1410.0000000000         100.19301999594         6.5041644584760    
     1420.0000000000         103.33373475542         5.5404096914743    
     1430.0000000000         106.11366754293         4.2410583542249    
     1440.0000000000         108.37974810370         2.6645230600464    
     1450.0000000000         109.99990547987        0.88202071828969    
     1460.0000000000         110.87834793038        -1.0251204485575    
     1470.0000000000         110.96816728681        -2.9695995231025    
     1480.0000000000         110.27779166624        -4.8633235547669    
     1490.0000000000         108.86932905114        -6.6228326433476    
     1500.0000000000         106.84928189440        -8.1740662789762    
     1510.0000000000         104.35430821070        -9.4558013705743    
     1520.0000000000         101.53566529866        -10.421536897168    
     1530.0000000000         98.545495622528        -11.040040334195    
     1540.0000000000         95.526753880847        -11.295035246074    
     1550.0000000000         92.607118324052        -11.184543970028    
     1560.0000000000         89.896215473824        -10.720250958659    
     1570.0000000000         87.485057739339        -9.9270107082526    
     1580.0000000000         85.446621489221        -8.8423769010551    
     1590.0000000000         83.836769753200        -7.5158478582069    
     1600.0000000000         82.695071793687        -6.0074630645032    
     1610.0000000000         82.045377652934        -4.3854782815567    
     1620.0000000000         81.896209226556        -2.7230797922860    
     1630.0000000000         82.241110569100        -1.0943972938060    
     1640.0000000000         83.059074640400        0.42967997970227    
     1650.0000000000         84.315078961359         1.7852983502089    
     1660.0000000000         85.960682240316         2.9185789534841    
     1670.0000000000         87.934613328272         3.7874917028297    
     1680.0000000000         90.163348314586         4.3627331883438    
     1690.0000000000         92.561809258277         4.6278701825502    
     1700.0000000000         95.034487718081         4.5790673499279    
     1710.0000000000         97.477434564088         4.2246509250647    
     1720.0000000000         99.781595587201         3.5846191105496    
     1730.0000000000         101.83783852284         2.6900525332346    
     1740.0000000000         103.54367342066         1.5822573807573    
     1750.0000000000         104.81114533648        0.31142960694962    
     1760.0000000000         105.57481314455        -1.0653186161529    
     1770.0000000000         105.79834867995        -2.4865884363408    
     1780.0000000000         105.47832245790        -3.8898144804777    
     1790.0000000000         104.64426940755        -5.2145535186849    
     1800.0000000000         103.35500027230        -6.4055549817438    
     1810.0000000000         101.69200796326        -7.4152812089278    
     1820.0000000000         99.751375065726        -8.2056924243986    
     1830.0000000000         97.635657916072        -8.7492872803567    
     1840.0000000000         95.446876480283        -9.0295278107832    
     1850.0000000000         93.281196716570        -9.0408382420674    
     1860.0000000000         91.225378806849        -8.7883470569736    
     1870.0000000000         89.354717746201        -8.2874652747703    
     1880.0000000000         87.732052865949        -7.5632977173614    
     1890.0000000000         86.407430619672        -6.6498046742954    
     1900.0000000000         85.418103084070        -5.5885976830382    
     1910.0000000000         84.788671429363        -4.4272799792626    
     1920.0000000000         84.531294550269        -3.2173250174956    
     1930.0000000000         84.645954665928        -2.0115994242536    
     1940.0000000000         85.120800185848       -0.86173866619772    
     1950.0000000000         85.932583570872        0.18436528337532    
     1960.0000000000         87.047199460022         1.0847251625389    
     1970.0000000000         88.420327661550         1.8049112951922    
     1980.0000000000         89.998209676223         2.3191486658525    
     1990.0000000000         91.718635570758         2.6109078902973    
     2000.0000000000         93.512275527959         2.6730950225051    
     2010.0000000000         95.304532165777         2.5079496133674    
     2020.0000000000         97.018086470461         2.1267242182845    
     2030.0000000000         98.576236995991         1.5491630279288    
     2040.0000000000         99.906979393267        0.80274672869276    
     2050.0000000000         100.94755939969       -0.78354511471948E-01
     2060.0000000000         101.64900917045        -1.0546663047499    
     2070.0000000000         101.98002294247        -2.0831324715504    
     2080.0000000000         101.92951902788        -3.1191041286059    
     2090.0000000000         101.50740890534        -4.1184584571388    
     2100.0000000000         100.74341580913        -5.0396706022095    
     2110.0000000000         99.684158448361        -5.8456651096756    
     2120.0000000000         98.389019326151        -6.5053169535486    
     2130.0000000000         96.925463581223        -6.9945395653929    
     2140.0000000000         95.364443000909        -7.2969642823309    
     2150.0000000000         93.776355668902        -7.4042617937544    
     2160.0000000000         92.227812258906        -7.3161717750565    
     2170.0000000000         90.779257821147        -7.0402944317431    
     2180.0000000000         89.483356972365        -6.5916685664604    
     2190.0000000000         88.383982121950        -5.9921303201670    
     2200.0000000000         87.515636286485        -5.2694288437903    
     2210.0000000000         86.903172122623        -4.4560791486099    
     2220.0000000000         86.561712772170        -3.5879588686769    
     2230.0000000000         86.496721889022        -2.7026977921456    
     2240.0000000000         86.704199915407        -1.8379525820101    
     2250.0000000000         87.171000501010        -1.0296887910425    
     2260.0000000000         87.875269406180       -0.31059714323025    
     2270.0000000000         88.787015231762        0.29125063875938    
     2280.0000000000         89.868832459815        0.75344151252954    
     2290.0000000000         91.076813862748         1.0599365318060    
     2300.0000000000         92.361707229502         1.2014786154636    
     2310.0000000000         93.670382097392         1.1757282968077    
     2320.0000000000         94.947664398801        0.98716368175920    
     2330.0000000000         96.138561903068        0.64676828207219    
     2340.0000000000         97.190837340597        0.17151372295915    
     2350.0000000000         98.057796834059       -0.41636715044759    
     2360.0000000000         98.701066598944        -1.0903207038435    
     2370.0000000000         99.093059884007        -1.8206158366108    
     2380.0000000000         99.218817108056        -2.5756542177891    
     2390.0000000000         99.076953364363        -3.3233831414869    
     2400.0000000000         98.679565503372        -4.0327249337153    
     2410.0000000000         98.051108918253        -4.6749292877540    
     2420.0000000000         97.226409921357        -5.2247643638512    
     2430.0000000000         96.248092234028        -5.6614858427418    
     2440.0000000000         95.163741164773        -5.9695528547781    
     2450.0000000000         94.023105716749        -6.1390870756446    
     2460.0000000000         92.875566335518        -6.1660896721959    
     2470.0000000000         91.768002735888        -6.0524377003676    
     2480.0000000000         90.743108519761        -5.8056788420486    
     2490.0000000000         89.838133978020        -5.4386359058379    
     2500.0000000000         89.084001286914        -4.9688262167588    
     2510.0000000000         88.504724234938        -4.4177007555249    
     2520.0000000000         88.117069919828        -3.8097159356435    
     2530.0000000000         87.930413914458        -3.1712661256866    
     2540.0000000000         87.946756304629        -2.5295233101633    
     2550.0000000000         88.160879755136        -1.9112459020525    
     2560.0000000000         88.560641249535        -1.3416264341106    
     2570.0000000000         89.127397227006       -0.84324489341089    
     2580.0000000000         89.836568959233       -0.43518155647220    
     2590.0000000000         90.658361879438       -0.13232415288113    
     2600.0000000000         91.558658285929        0.55115654242074E-01
     2610.0000000000         92.500104745467        0.12187735715060    
     2620.0000000000         93.443409923551        0.67728394696867E-01
     2630.0000000000         94.348852096522       -0.10264456156749    
     2640.0000000000         95.177966917472       -0.37991864172559    
     2650.0000000000         95.895347378569       -0.75058333098458    
     2660.0000000000         96.470445992711        -1.1975455755250    
     2670.0000000000         96.879234334476        -1.7008777569876    
     2680.0000000000         97.105558818602        -2.2386855843679    
     2690.0000000000         97.142042904339        -2.7880611426310    
     2700.0000000000         96.990427258424        -3.3260753126160    
     2710.0000000000         96.661304652878        -3.8307569910501    
     2720.0000000000         96.173281855545        -4.2820063054887    
